Name
Date of Birth,"23. May 1994"
Recorded Date,2020-08-12 18:48:46 +0200
Classification,Sinus Rhythm
Symptoms,
Software Version,1.90
Device,"Watch5,1"
Sample Rate,511,422 hertz


Lead,Lead I
Unit,µV

-341,095
-408,356
-442,355
-439,528
-415,613
-384,356
-360,857
-350,27
-343,348
-334,774
-321,74
-304,221
-287,683
-274,343
-263,531
-254,472
-245,305
-235,135
-224,042
-211,915
-198,764
-184,807
-170,407
-156,076
-142,364
-129,551
-117,689
-106,745
-96,611
-87,152
-78,209
-69,595
-61,085
-52,507
-43,793
-34,861
-25,672
-16,302
-6,789
2,839
12,517
22,259
32,112
41,957
51,64
61,37
71,389
81,462
91,54
101,605
110,969
121,337
134,378
147,673
160,486
168,378
166,05
159,385
152,305
150,648
162,421
180,556
199,07
213,871
218,186
216,891
214,92
213,376
215,269
218,867
221,941
224,925
227,539
229,935
232,573
235,164
237,477
239,599
241,556
243,323
244,915
246,352
247,649
248,85
250,011
251,111
252,128
253,074
253,942
254,71
255,442
256,163
256,842
257,569
258,033
257,982
257,712
257,139
257,427
259,524
262,592
266,507
267,007
264,825
257,597
223,052
205,925
283,37
353,628
289,337
206,36
221,987
261,034
266,29
264,674
264,978
262,713
260,943
260,198
260,479
261,381
262,068
262,714
263,385
264,065
264,855
265,732
266,682
267,715
268,83
270,022
271,286
272,615
274,002
275,438
276,915
278,422
279,951
281,493
283,038
284,58
286,109
287,618
289,096
290,533
291,917
293,235
294,475
295,623
296,666
297,592
298,388
299,045
299,556
299,913
300,111
300,144
300,004
299,687
299,186
298,498
297,619
296,549
295,288
293,836
292,198
290,381
288,391
286,234
283,912
281,423
278,761
275,918
272,882
269,647
266,209
262,566
258,724
254,697
250,516
246,231
241,893
237,539
233,199
228,89
224,622
220,416
216,294
212,272
208,367
204,595
200,97
197,535
194,346
191,406
188,64
185,886
182,936
179,628
175,897
171,676
166,841
161,366
155,349
149,053
143,02
137,722
133,216
129,417
126,239
123,301
120,2
116,346
110,376
101,023
87,995
71,527
52,338
31,916
11,805
-6,048
-18,341
-21,785
-14,538
4,143
33,773
72,541
118,105
167,146
214,47
254,425
282,61
295,966
292,947
273,439
238,35
189,992
132,754
72,124
13,149
-39,965
-84,176
-117,411
-138,517
-147,533
-146,1
-137,06
-123,506
-108,429
-94,132
-82,415
-74,584
-71,25
-72,282
-76,851
-83,733
-91,481
-99,01
-105,58
-110,696
-114,252
-116,325
-117,151
-117,17
-116,956
-116,919
-117,246
-117,981
-118,954
-119,963
-120,867
-121,508
-121,744
-121,51
-120,788
-119,599
-118,028
-116,163
-114,053
-111,737
-109,206
-106,427
-103,398
-100,137
-96,68
-93,085
-89,394
-85,639
-81,856
-78,08
-74,334
-70,631
-66,967
-63,322
-59,686
-56,063
-52,46
-48,895
-45,376
-41,903
-38,48
-35,103
-31,773
-28,49
-25,248
-22,036
-18,848
-15,678
-12,525
-9,389
-6,27
-3,162
-0,063
3,031
6,12
9,208
12,296
15,39
18,492
21,603
24,725
27,857
30,999
34,15
37,307
40,469
43,631
46,789
49,939
53,078
56,199
59,3
62,373
65,416
68,422
71,386
74,303
77,165
79,968
82,704
85,368
87,953
90,455
92,868
95,188
97,411
99,534
101,553
103,466
105,268
106,958
108,532
109,989
111,326
112,544
113,639
114,613
115,466
116,198
116,809
117,302
117,678
117,938
118,083
118,117
118,04
117,855
117,564
117,168
116,67
116,073
115,377
114,586
113,701
112,722
111,651
110,489
109,236
107,892
106,457
104,93
103,312
101,602
99,801
97,909
95,926
93,854
91,691
89,439
87,099
84,67
82,153
79,548
76,856
74,078
71,214
68,266
65,234
62,12
58,924
55,648
52,292
48,858
45,347
41,76
38,098
34,363
30,558
26,686
22,748
18,75
14,693
10,583
6,421
2,212
-2,041
-6,336
-10,67
-15,039
-19,441
-23,872
-28,331
-32,813
-37,317
-41,84
-46,38
-50,933
-55,498
-60,074
-64,656
-69,244
-73,833
-78,421
-83,005
-87,579
-92,141
-96,686
-101,208
-105,706
-110,173
-114,606
-119,002
-123,355
-127,662
-131,919
-136,12
-140,261
-144,338
-148,344
-152,276
-156,127
-159,893
-163,568
-167,148
-170,626
-173,996
-177,254
-180,392
-183,404
-186,284
-189,026
-191,623
-194,07
-196,362
-198,494
-200,462
-202,264
-203,894
-205,353
-206,636
-207,744
-208,674
-209,425
-209,999
-210,394
-210,612
-210,655
-210,524
-210,221
-209,751
-209,116
-208,319
-207,365
-206,258
-205,002
-203,603
-202,066
-200,397
-198,605
-196,696
-194,677
-192,559
-190,349
-188,056
-185,689
-183,257
-180,769
-178,232
-175,657
-173,05
-170,421
-167,775
-165,122
-162,468
-159,819
-157,181
-154,561
-151,962
-149,39
-146,849
-144,342
-141,873
-139,447
-137,065
-134,731
-132,448
-130,218
-128,042
-125,922
-123,859
-121,853
-119,903
-118,009
-116,169
-114,381
-112,644
-110,955
-109,311
-107,71
-106,147
-104,62
-103,125
-101,658
-100,217
-98,797
-97,397
-96,013
-94,643
-93,285
-91,937
-90,597
-89,263
-87,934
-86,608
-85,283
-83,957
-82,63
-81,299
-79,963
-78,621
-77,273
-75,916
-74,552
-73,179
-71,798
-70,409
-69,013
-67,611
-66,204
-64,795
-63,385
-61,978
-60,575
-59,181
-57,797
-56,426
-55,071
-53,735
-52,42
-51,127
-49,858
-48,615
-47,401
-46,215
-45,062
-43,941
-42,855
-41,807
-40,796
-39,826
-38,898
-38,013
-37,172
-36,378
-35,63
-34,929
-34,278
-33,675
-33,121
-32,615
-32,157
-31,744
-31,374
-31,045
-30,754
-30,497
-30,271
-30,073
-29,899
-29,747
-29,613
-29,495
-29,388
-29,29
-29,197
-29,106
-29,014
-28,915
-28,807
-28,687
-28,549
-28,39
-28,207
-27,995
-27,75
-27,469
-27,147
-26,781
-26,366
-25,899
-25,378
-24,8
-24,163
-23,466
-22,708
-21,889
-21,009
-20,07
-19,071
-18,015
-16,901
-15,731
-14,506
-13,228
-11,899
-10,519
-9,092
-7,619
-6,103
-4,547
-2,953
-1,324
0,336
2,023
3,735
5,467
7,214
8,972
10,736
12,501
14,262
16,014
17,753
19,476
21,178
22,856
24,507
26,129
27,72
29,276
30,797
32,28
33,723
35,124
36,483
37,796
39,063
40,283
41,452
42,571
43,637
44,65
45,608
46,51
47,356
48,146
48,881
49,559
50,184
50,755
51,273
51,74
52,156
52,521
52,835
53,098
53,307
53,463
53,564
53,609
53,596
53,524
53,39
53,195
52,937
52,614
52,224
51,765
51,233
50,628
49,948
49,191
48,357
47,444
46,451
45,38
44,231
43,004
41,699
40,313
38,846
37,299
35,675
33,978
32,218
30,401
28,544
26,677
24,763
22,779
20,735
18,613
16,718
15,248
14,021
12,834
10,434
6,26
0,974
-4,25
-4,793
-2,051
5,958
34,971
46,278
-30,201
-125,166
-85,633
56,801
106,086
12,294
-68,488
-52,954
-17,386
-9,969
-8,776
-6,212
-6,4
-6,26
-4,665
-1,866
1,698
5,241
8,69
12,021
15,202
18,364
21,855
26,071
31,04
36,642
42,73
48,881
54,805
60,126
63,562
63,68
59,816
51,789
40,209
26,517
11,661
-2,928
-13,811
-17,158
-9,905
8,039
32,892
61,176
92,515
132,763
189,564
262,275
341,066
404,812
429,721
404,481
329,464
218,919
96,097
-17,257
-100,224
-140,463
-136,943
-99,175
-48,584
-3,96
24,162
34,591
37,397
40,095
44,063
47,926
47,043
39,752
28,548
16
4,074
-6,202
-14,887
-22,039
-27,493
-31,499
-34,716
-37,806
-41,094
-44,615
-48,238
-51,805
-55,298
-58,672
-61,79
-64,492
-66,696
-68,411
-69,702
-70,661
-71,331
-71,722
-71,858
-71,766
-71,479
-71,032
-70,451
-69,743
-68,921
-67,999
-66,985
-65,892
-64,725
-63,485
-62,172
-60,789
-59,339
-57,83
-56,271
-54,67
-53,035
-51,371
-49,686
-47,986
-46,279
-44,573
-42,874
-41,191
-39,529
-37,892
-36,284
-34,706
-33,159
-31,642
-30,155
-28,693
-27,255
-25,837
-24,439
-23,056
-21,687
-20,328
-18,975
-17,627
-16,279
-14,929
-13,574
-12,209
-10,832
-9,438
-8,023
-6,584
-5,114
-3,61
-2,065
-0,475
1,166
2,863
4,621
6,445
8,338
10,305
12,347
14,469
16,671
18,957
21,326
23,781
26,32
28,944
31,652
34,441
37,311
40,257
43,278
46,37
49,529
52,751
56,032
59,366
62,749
66,173
69,631
73,116
76,619
80,13
83,641
87,14
90,618
94,064
97,467
100,816
104,1
107,309
110,43
113,452
116,364
119,155
121,813
124,329
126,691
128,891
130,919
132,769
134,432
135,902
137,172
138,237
139,092
139,733
140,155
140,355
140,333
140,086
139,616
138,923
138,01
136,88
135,538
133,987
132,234
130,285
128,147
125,827
123,335
120,68
117,872
114,922
111,842
108,644
105,34
101,942
98,464
94,918
91,317
87,672
83,995
80,299
76,594
72,894
69,208
65,548
61,924
58,347
54,825
51,368
47,982
44,676
41,454
38,323
35,288
32,351
29,518
26,791
24,172
21,662
19,263
16,973
14,791
12,715
10,743
8,869
7,09
5,401
3,796
2,271
0,819
-0,566
-1,889
-3,157
-4,376
-5,553
-6,695
-7,809
-8,9
-9,976
-11,042
-12,104
-13,167
-14,235
-15,312
-16,401
-17,507
-18,632
-19,778
-20,948
-22,144
-23,367
-24,617
-25,895
-27,199
-28,528
-29,88
-31,253
-32,642
-34,046
-35,459
-36,878
-38,299
-39,718
-41,129
-42,527
-43,908
-45,265
-46,592
-47,885
-49,137
-50,344
-51,5
-52,602
-53,645
-54,626
-55,542
-56,39
-57,169
-57,874
-58,506
-59,062
-59,541
-59,942
-60,266
-60,512
-60,683
-60,779
-60,803
-60,757
-60,642
-60,463
-60,222
-59,922
-59,567
-59,161
-58,708
-58,213
-57,682
-57,119
-56,531
-55,924
-55,302
-54,671
-54,036
-53,402
-52,773
-52,154
-51,547
-50,957
-50,387
-49,841
-49,322
-48,832
-48,374
-47,949
-47,56
-47,208
-46,893
-46,617
-46,38
-46,182
-46,025
-45,909
-45,833
-45,799
-45,805
-45,851
-45,937
-46,059
-46,217
-46,407
-46,627
-46,875
-47,147
-47,442
-47,756
-48,088
-48,434
-48,792
-49,161
-49,538
-49,921
-50,307
-50,695
-51,084
-51,471
-51,855
-52,236
-52,612
-52,983
-53,347
-53,703
-54,051
-54,387
-54,712
-55,024
-55,32
-55,601
-55,866
-56,114
-56,346
-56,561
-56,761
-56,946
-57,118
-57,276
-57,423
-57,56
-57,686
-57,803
-57,912
-58,015
-58,11
-58,2
-58,285
-58,364
-58,438
-58,507
-58,569
-58,624
-58,672
-58,711
-58,741
-58,761
-58,771
-58,771
-58,759
-58,736
-58,701
-58,653
-58,591
-58,512
-58,416
-58,301
-58,163
-58,001
-57,812
-57,594
-57,344
-57,059
-56,737
-56,376
-55,974
-55,528
-55,038
-54,502
-53,92
-53,291
-52,615
-51,893
-51,125
-50,313
-49,458
-48,561
-47,623
-46,645
-45,628
-44,575
-43,485
-42,361
-41,204
-40,016
-38,799
-37,555
-36,286
-34,996
-33,686
-32,359
-31,019
-29,669
-28,31
-26,946
-25,578
-24,209
-22,84
-21,472
-20,104
-18,735
-17,365
-15,991
-14,611
-13,222
-11,822
-10,405
-8,97
-7,512
-6,028
-4,515
-2,97
-1,389
0,231
1,891
3,594
5,342
7,138
8,983
10,879
12,827
14,829
16,885
18,997
21,166
23,392
25,676
28,016
30,41
32,854
35,345
37,876
40,439
43,025
45,623
48,223
50,813
53,381
55,913
58,398
60,82
63,167
65,426
67,584
69,626
71,541
73,315
74,938
76,399
77,687
78,793
79,706
80,419
80,922
81,208
81,267
81,092
80,676
80,013
79,1
77,935
76,516
74,847
72,933
70,783
68,41
65,824
63,039
60,072
56,94
53,659
50,246
46,712
43,072
39,34
35,53
31,659
27,745
23,807
19,867
15,955
12,101
8,338
4,698
1,201
-2,125
-5,245
-8,119
-10,695
-12,925
-14,77
-16,191
-17,148
-17,62
-17,598
-17,103
-16,188
-14,912
-13,339
-11,53
-9,52
-7,363
-5,108
-2,81
-0,553
1,596
3,621
5,504
7,249
8,931
10,6
12,398
14,625
17,445
20,935
25,066
29,536
34,083
38,623
42,928
46,725
50,238
53,956
58,85
66,679
78,812
96,048
119,177
148,427
182,854
220,665
258,825
292,758
318,418
332,77
333,055
317,771
287,175
242,963
188,736
130,179
72,799
21,01
-21,136
-50,946
-67,376
-70,646
-62,707
-47,31
-28,357
-8,922
8,249
21,327
29,475
32,425
30,851
26,404
20,877
15,534
11,324
8,729
7,818
8,556
10,609
13,267
15,755
17,586
18,534
18,581
17,854
16,452
14,496
12,227
9,944
7,844
6,014
4,465
3,151
2,069
1,264
0,771
0,595
0,733
1,169
1,893
2,908
4,196
5,707
7,372
9,107
10,857
12,594
14,304
15,974
17,594
19,149
20,632
22,051
23,407
24,696
25,91
27,039
28,077
29,03
29,907
30,717
31,467
32,16
32,802
33,398
33,951
34,464
34,937
35,366
35,752
36,099
36,413
36,699
36,964
37,213
37,454
37,693
37,937
38,191
38,458
38,741
39,043
39,366
39,715
40,09
40,495
40,933
41,405
41,916
42,468
43,061
43,697
44,377
45,102
45,871
46,682
47,535
48,427
49,356
50,322
51,321
52,35
53,406
54,485
55,584
56,697
57,822
58,952
60,083
61,212
62,332
63,443
64,539
65,617
66,675
67,709
68,715
69,689
70,631
71,534
72,404
73,259
74,04
74,714
75,305
75,728
76,29
77,236
78,277
79,498
79,765
78,155
75,491
71,898
71,542
73,712
80,719
114,306
130,82
54,974
-13,922
48,424
128,949
113,199
74,549
68,836
69,794
68,853
70,4
71,45
71,494
70,54
68,985
67,656
66,384
65,114
63,863
62,54
61,168
59,766
58,325
56,849
55,34
53,801
52,236
50,645
49,033
47,4
45,751
44,087
42,412
40,729
39,041
37,351
35,663
33,98
32,308
30,648
29,006
27,384
25,786
24,215
22,675
21,169
19,699
18,269
16,88
15,536
14,238
12,988
11,787
10,638
9,54
8,496
7,505
6,568
5,687
4,86
4,088
3,37
2,706
2,095
1,535
1,024
0,561
0,143
-0,233
-0,57
-0,872
-1,141
-1,381
-1,596
-1,79
-1,966
-2,129
-2,281
-2,427
-2,571
-2,716
-2,865
-3,022
-3,19
-3,371
-3,567
-3,782
-4,016
-4,273
-4,553
-4,858
-5,19
-5,549
-5,936
-6,351
-6,793
-7,263
-7,759
-8,28
-8,824
-9,389
-9,973
-10,573
-11,187
-11,811
-12,444
-13,081
-13,72
-14,357
-14,99
-15,615
-16,228
-16,828
-17,411
-17,976
-18,519
-19,04
-19,535
-20,005
-20,447
-20,861
-21,245
-21,6
-21,924
-22,217
-22,479
-22,712
-22,916
-23,093
-23,243
-23,37
-23,475
-23,562
-23,634
-23,693
-23,744
-23,79
-23,836
-23,884
-23,941
-24,009
-24,094
-24,2
-24,33
-24,489
-24,682
-24,91
-25,179
-25,49
-25,847
-26,254
-26,711
-27,222
-27,79
-28,415
-29,1
-29,848
-30,658
-31,533
-32,474
-33,48
-34,552
-35,69
-36,893
-38,16
-39,489
-40,878
-42,326
-43,829
-45,384
-46,987
-48,636
-50,326
-52,052
-53,81
-55,596
-57,405
-59,233
-61,073
-62,924
-64,779
-66,635
-68,487
-70,332
-72,166
-73,984
-75,782
-77,556
-79,302
-81,015
-82,692
-84,328
-85,92
-87,465
-88,958
-90,398
-91,782
-93,108
-94,373
-95,577
-96,718
-97,796
-98,811
-99,763
-100,653
-101,483
-102,254
-102,969
-103,631
-104,241
-104,802
-105,318
-105,79
-106,221
-106,615
-106,973
-107,3
-107,599
-107,872
-108,125
-108,361
-108,584
-108,8
-109,011
-109,223
-109,44
-109,667
-109,909
-110,169
-110,452
-110,762
-111,104
-111,481
-111,897
-112,354
-112,855
-113,401
-113,994
-114,634
-115,321
-116,055
-116,835
-117,66
-118,531
-119,445
-120,401
-121,398
-122,433
-123,503
-124,605
-125,734
-126,888
-128,06
-129,246
-130,44
-131,637
-132,831
-134,014
-135,181
-136,322
-137,431
-138,498
-139,514
-140,472
-141,362
-142,177
-142,908
-143,549
-144,095
-144,538
-144,874
-145,097
-145,204
-145,189
-145,049
-144,78
-144,379
-143,843
-143,172
-142,367
-141,428
-140,357
-139,158
-137,834
-136,39
-134,83
-133,161
-131,387
-129,516
-127,556
-125,518
-123,413
-121,254
-119,055
-116,83
-114,593
-112,361
-110,147
-107,964
-105,826
-103,745
-101,734
-99,806
-97,974
-96,252
-94,655
-93,198
-91,897
-90,766
-89,815
-89,056
-88,498
-88,144
-88
-88,064
-88,334
-88,81
-89,493
-90,385
-91,488
-92,8
-94,315
-96,029
-97,937
-100,03
-102,295
-104,715
-107,266
-109,933
-112,71
-115,598
-118,607
-121,734
-124,96
-128,272
-131,661
-135,106
-138,583
-142,035
-145,378
-148,547
-151,501
-154,217
-156,698
-158,931
-160,88
-162,525
-163,835
-164,804
-165,466
-165,812
-165,818
-165,481
-164,793
-163,86
-162,894
-162,073
-161,546
-161,396
-161,594
-162,192
-163,316
-164,954
-167,027
-169,262
-171,126
-172,385
-173,104
-173,335
-173,17
-172,601
-171,507
-170,331
-170,169
-171,783
-175,427
-180,771
-186,934
-193,214
-198,968
-202,978
-202,95
-196,065
-180,155
-154,307
-120,486
-82,658
-43,735
-5,146
35,976
85,119
141,873
199,077
241,847
249,416
210,58
128,794
17,128
-99,259
-195,365
-261,151
-291,451
-289,758
-272,068
-244,764
-212,937
-187,069
-164,92
-149,415
-147,604
-152,391
-161,954
-173,692
-179,307
-181,918
-184,051
-185,458
-188,874
-192,291
-193,35
-192,589
-190,133
-186,796
-183,652
-180,707
-177,803
-175,018
-172,38
-169,9
-167,535
-165,176
-162,656
-159,85
-156,764
-153,387
-149,711
-145,76
-141,526
-137,012
-132,262
-127,328
-122,239
-117,006
-111,608
-106,011
-100,217
-94,244
-88,126
-81,917
-75,649
-69,349
-63,055
-56,795
-50,592
-44,463
-38,406
-32,407
-26,46
-20,57
-14,743
-8,991
-3,32
2,273
7,791
13,239
18,624
23,955
29,25
34,522
39,784
45,047
50,317
55,597
60,894
66,212
71,555
76,93
82,341
87,793
93,293
98,847
104,457
110,128
115,86
121,653
127,507
133,421
139,394
145,422
151,504
157,637
163,816
170,037
176,295
182,583
188,895
195,223
201,557
207,887
214,203
220,494
226,747
232,952
239,095
245,164
251,148
257,035
262,814
268,473
274,002
279,39
284,629
289,708
294,62
299,356
303,911
308,279
312,454
316,43
320,205
323,774
327,135
330,283
333,218
335,937
338,44
340,727
342,797
344,653
346,296
347,729
348,955
349,98
350,806
351,441
351,89
352,159
352,255
352,187
351,961
351,584
351,065
350,41
349,626
348,719
347,696
346,561
345,322
343,981
342,545
341,017
339,402
337,705
335,929
334,078
332,155
330,165
328,109
325,992
323,816
321,583
319,295
316,955
314,564
312,123
309,633
307,094
304,505
301,867
299,177
296,435
293,639
290,789
287,882
284,919
281,898
278,82
275,685
272,494
269,247
265,948
262,598
259,198
255,753
252,264
248,737
245,173
241,577
237,954
234,307
230,64
226,958
223,266
219,566
215,865
212,166
208,475
204,796
201,135
197,497
193,888
190,314
186,78
183,292
179,856
176,476
173,158
169,905
166,721
163,608
160,57
157,608
154,723
151,915
149,184
146,528
143,948
141,439
138,999
136,626
134,315
132,063
129,865
127,718
125,618
123,561
121,543
119,559
117,605
115,677
113,771
111,882
110,006
108,139
106,276
104,414
102,55
100,68
98,803
96,916
95,019
93,111
91,192
89,264
87,327
85,386
83,441
81,499
79,564
77,642
75,738
73,86
72,014
70,208
68,449
66,744
65,1
63,524
62,024
60,605
59,274
58,038
56,902
55,871
54,951
54,146
53,46
52,897
52,458
52,145
51,959
51,9
51,967
52,157
52,468
52,896
53,436
54,081
54,825
55,66
56,574
57,56
58,604
59,696
60,823
61,972
63,13
64,285
65,423
66,531
67,595
68,604
69,543
70,402
71,166
71,826
72,369
72,786
73,066
73,2
73,182
73,002
72,655
72,136
71,44
70,563
69,503
68,258
66,829
65,216
63,42
61,447
59,299
56,984
54,506
51,875
49,097
46,181
43,136
39,973
36,699
33,326
29,863
26,32
22,709
19,038
15,318
11,559
7,769
3,959
0,136
-3,691
-7,515
-11,329
-15,127
-18,903
-22,651
-26,365
-30,043
-33,679
-37,271
-40,817
-44,315
-47,764
-51,165
-54,518
-57,825
-61,087
-64,306
-67,484
-70,625
-73,731
-76,803
-79,846
-82,861
-85,85
-88,817
-91,764
-94,691
-97,6
-100,493
-103,369
-106,229
-109,072
-111,896
-114,699
-117,479
-120,234
-122,962
-125,659
-128,323
-130,95
-133,538
-136,083
-138,581
-141,027
-143,418
-145,747
-148,01
-150,203
-152,319
-154,354
-156,302
-158,161
-159,926
-161,596
-163,167
-164,638
-166,006
-167,271
-168,433
-169,493
-170,451
-171,309
-172,071
-172,74
-173,325
-173,831
-174,265
-174,636
-174,95
-175,218
-175,447
-175,645
-175,82
-175,98
-176,133
-176,289
-176,457
-176,648
-176,871
-177,137
-177,457
-177,844
-178,306
-178,85
-179,483
-180,21
-181,036
-181,963
-182,989
-184,113
-185,333
-186,651
-188,068
-189,582
-191,192
-192,894
-194,682
-196,551
-198,497
-200,508
-202,565
-204,652
-206,754
-208,869
-211,002
-213,151
-215,305
-217,448
-219,562
-221,626
-223,612
-225,469
-227,122
-228,494
-229,527
-230,188
-230,473
-230,375
-229,881
-228,97
-227,615
-225,819
-223,602
-220,97
-217,926
-214,481
-210,689
-206,671
-202,627
-198,744
-195,165
-191,987
-189,242
-186,962
-185,167
-183,852
-182,986
-182,503
-182,31
-182,321
-182,503
-182,764
-182,901
-182,661
-181,601
-179,194
-175,179
-169,439
-161,931
-152,932
-142,756
-131,559
-119,842
-108,232
-96,636
-84,589
-71,4
-55,562
-35,465
-10,279
20,783
58,546
100,164
142,144
183,687
220,556
252,853
282,117
298,749
297,174
271,502
214,425
137,073
52,128
-30,227
-96,356
-146,775
-187,354
-216,855
-233,992
-232,802
-202,611
-147,967
-85,583
-32,024
-7,674
-15,847
-40,329
-67,502
-82,293
-79,912
-70,672
-60,802
-54,594
-53,501
-52,61
-49,984
-46,364
-42,217
-39,054
-37,505
-36,988
-37,282
-38,31
-39,824
-41,615
-43,44
-45,06
-46,423
-47,593
-48,597
-49,409
-49,976
-50,263
-50,27
-50,006
-49,485
-48,715
-47,698
-46,458
-45,052
-43,535
-41,972
-40,424
-38,919
-37,475
-36,11
-34,832
-33,654
-32,585
-31,619
-30,75
-29,974
-29,291
-28,702
-28,207
-27,796
-27,456
-27,176
-26,943
-26,745
-26,573
-26,417
-26,269
-26,124
-25,978
-25,827
-25,67
-25,501
-25,316
-25,108
-24,869
-24,589
-24,262
-23,879
-23,432
-22,914
-22,319
-21,642
-20,881
-20,03
-19,087
-18,05
-16,915
-15,68
-14,344
-12,905
-11,363
-9,718
-7,971
-6,123
-4,177
-2,137
-0,006
2,211
4,511
6,888
9,338
11,857
14,438
17,076
19,764
22,496
25,263
28,059
30,874
33,699
36,527
39,348
42,153
44,935
47,685
50,396
53,058
55,666
58,21
60,684
63,081
65,393
67,615
69,739
71,76
73,672
75,47
77,15
78,705
80,133
81,429
82,588
83,606
84,481
85,208
85,784
86,208
86,477
86,589
86,544
86,341
85,982
85,466
84,796
83,973
83,001
81,881
80,618
79,215
77,677
76,008
74,213
72,299
70,27
68,133
65,896
63,563
61,144
58,645
56,074
53,439
50,748
48,01
45,233
42,427
39,601
36,766
33,93
31,103
28,294
25,514
22,771
20,073
17,429
14,847
12,333
9,896
7,54
5,274
3,102
1,029
-0,939
-2,799
-4,547
-6,179
-7,693
-9,086
-10,358
-11,505
-12,529
-13,427
-14,199
-14,847
-15,37
-15,771
-16,051
-16,212
-16,257
-16,191
-16,016
-15,737
-15,359
-14,886
-14,322
-13,672
-12,941
-12,133
-11,254
-10,308
-9,299
-8,234
-7,115
-5,948
-4,738
-3,489
-2,206
-0,893
0,446
1,806
3,182
4,571
5,966
7,364
8,76
10,149
11,527
12,888
14,23
15,548
16,838
18,097
19,321
20,509
21,655
22,758
23,815
24,822
25,778
26,678
27,522
28,306
29,028
29,686
30,279
30,804
31,259
31,644
31,956
32,195
32,359
32,449
32,464
32,405
32,273
32,069
31,795
31,453
31,045
30,574
30,042
29,451
28,806
28,109
27,362
26,57
25,736
24,863
23,956
23,016
22,049
21,059
20,047
19,02
17,979
16,93
15,875
14,819
13,766
12,719
11,682
10,658
9,651
8,663
7,698
6,757
5,843
4,957
4,1
3,275
2,481
1,72
0,992
0,297
-0,364
-0,992
-1,586
-2,146
-2,673
-3,166
-3,627
-4,055
-4,45
-4,813
-5,144
-5,443
-5,71
-5,946
-6,151
-6,325
-6,469
-6,582
-6,665
-6,719
-6,743
-6,738
-6,703
-6,64
-6,547
-6,425
-6,273
-6,092
-5,882
-5,641
-5,369
-5,067
-4,733
-4,369
-3,973
-3,546
-3,088
-2,599
-2,08
-1,532
-0,955
-0,35
0,282
0,938
1,618
2,321
3,042
3,782
4,537
5,304
6,082
6,868
7,66
8,454
9,25
10,044
10,835
11,62
12,397
13,164
13,918
14,657
15,38
16,084
16,769
17,433
18,076
18,696
19,294
19,869
20,421
20,95
21,458
21,943
22,409
22,855
23,285
23,701
24,105
24,5
24,891
25,28
25,67
26,065
26,467
26,88
27,305
27,746
28,204
28,683
29,186
29,714
30,272
30,86
31,48
32,135
32,823
33,544
34,298
35,084
35,9
36,744
37,615
38,509
39,426
40,361
41,312
42,275
43,243
44,21
45,169
46,112
47,033
47,923
48,775
49,582
50,337
51,034
51,667
52,228
52,71
53,105
53,404
53,596
53,673
53,626
53,448
53,132
52,674
52,07
51,319
50,423
49,383
48,198
46,871
45,399
43,782
42,019
40,11
38,054
35,853
33,509
31,026
28,414
25,683
22,842
19,897
16,846
13,689
10,433
7,088
3,668
0,194
-3,309
-6,807
-10,24
-13,551
-16,679
-19,562
-22,171
-24,481
-26,474
-28,142
-29,462
-30,428
-31,053
-31,366
-31,389
-31,161
-30,715
-30,112
-29,486
-28,973
-28,729
-28,909
-29,594
-30,843
-32,694
-35,146
-38,189
-41,782
-45,815
-50,169
-54,758
-59,46
-64,153
-68,639
-72,57
-75,606
-77,377
-77,476
-75,61
-71,625
-65,594
-57,881
-48,923
-39,105
-28,802
-18,207
-7,457
3,572
16,241
32,213
52,614
78,918
109,6
142,196
177,786
214,759
253,9
296,28
331,671
352,494
350,613
317,529
261,938
193,121
120,327
56,296
1,541
-43,944
-77,918
-101,973
-113,946
-112,972
-102,472
-85,568
-66,357
-48,853
-34,936
-25,67
-21,62
-22,202
-26,241
-32,321
-38,684
-44,044
-47,84
-49,767
-49,838
-48,369
-45,767
-42,645
-39,743
-37,481
-35,995
-35,3
-35,275
-35,824
-36,87
-38,227
-39,653
-40,962
-42,052
-42,912
-43,572
-44,034
-44,269
-44,234
-43,917
-43,337
-42,517
-41,468
-40,193
-38,691
-36,989
-35,141
-33,21
-31,258
-29,327
-27,434
-25,599
-23,837
-22,165
-20,594
-19,128
-17,754
-16,469
-15,274
-14,17
-13,161
-12,244
-11,406
-10,633
-9,914
-9,235
-8,587
-7,959
-7,342
-6,727
-6,109
-5,482
-4,846
-4,197
-3,527
-2,83
-2,099
-1,327
-0,509
0,363
1,294
2,287
3,347
4,474
5,671
6,938
8,275
9,684
11,163
12,713
14,333
16,021
17,775
19,592
21,47
23,404
25,391
27,426
29,506
31,625
33,78
35,966
38,178
40,413
42,666
44,931
47,204
49,481
51,757
54,027
56,288
58,535
60,766
62,978
65,168
67,334
69,475
71,588
73,671
75,724
77,744
79,73
81,682
83,597
85,474
87,313
89,111
90,867
92,579
94,245
95,861
97,426
98,935
100,385
101,772
103,094
104,346
105,525
106,627
107,648
108,583
109,429
110,181
110,833
111,381
111,821
112,147
112,355
112,441
112,4
112,228
111,923
111,48
110,897
110,172
109,301
108,284
107,12
105,808
104,35
102,746
101
99,114
97,094
94,942
92,666
90,269
87,76
85,145
82,431
79,626
76,739
73,779
70,754
67,675
64,552
61,395
58,213
55,018
51,819
48,627
45,452
42,303
39,191
36,125
33,114
30,168
27,294
24,502
21,797
19,186
16,675
14,268
11,97
9,783
7,71
5,752
3,91
2,184
0,575
-0,92
-2,302
-3,574
-4,738
-5,799
-6,76
-7,627
-8,403
-9,095
-9,708
-10,247
-10,719
-11,129
-11,485
-11,792
-12,058
-12,289
-12,492
-12,674
-12,84
-12,997
-13,151
-13,306
-13,467
-13,639
-13,825
-14,029
-14,254
-14,502
-14,775
-15,075
-15,403
-15,759
-16,144
-16,557
-16,999
-17,467
-17,962
-18,482
-19,024
-19,589
-20,172
-20,774
-21,39
-22,018
-22,655
-23,298
-23,944
-24,588
-25,228
-25,86
-26,48
-27,085
-27,672
-28,237
-28,779
-29,295
-29,783
-30,24
-30,665
-31,056
-31,414
-31,736
-32,023
-32,274
-32,49
-32,67
-32,816
-32,927
-33,004
-33,048
-33,06
-33,04
-32,991
-32,913
-32,809
-32,68
-32,529
-32,358
-32,17
-31,968
-31,756
-31,536
-31,312
-31,087
-30,864
-30,647
-30,439
-30,242
-30,06
-29,894
-29,748
-29,622
-29,519
-29,44
-29,385
-29,356
-29,353
-29,376
-29,426
-29,504
-29,608
-29,739
-29,897
-30,079
-30,287
-30,517
-30,769
-31,041
-31,33
-31,635
-31,951
-32,276
-32,606
-32,938
-33,268
-33,592
-33,906
-34,205
-34,486
-34,745
-34,978
-35,183
-35,355
-35,492
-35,593
-35,656
-35,678
-35,658
-35,597
-35,492
-35,344
-35,152
-34,918
-34,642
-34,325
-33,969
-33,576
-33,148
-32,688
-32,199
-31,684
-31,148
-30,594
-30,027
-29,452
-28,874
-28,297
-27,728
-27,172
-26,634
-26,118
-25,629
-25,172
-24,75
-24,366
-24,024
-23,725
-23,472
-23,267
-23,109
-23
-22,939
-22,926
-22,958
-23,034
-23,15
-23,305
-23,493
-23,711
-23,953
-24,215
-24,49
-24,772
-25,053
-25,327
-25,584
-25,816
-26,015
-26,173
-26,28
-26,329
-26,312
-26,222
-26,051
-25,794
-25,444
-24,997
-24,445
-23,787
-23,016
-22,131
-21,128
-20,006
-18,763
-17,401
-15,921
-14,325
-12,615
-10,793
-8,864
-6,831
-4,701
-2,478
-0,171
2,214
4,665
7,172
9,721
12,302
14,9
17,504
20,101
22,677
25,222
27,723
30,168
32,548
34,85
37,062
39,171
41,166
43,033
44,763
46,342
47,76
49,009
50,082
50,975
51,685
52,21
52,546
52,693
52,648
52,408
51,973
51,341
50,514
49,499
48,302
46,935
45,411
43,744
41,947
40,034
38,01
35,873
33,621
31,245
28,744
26,134
23,429
20,649
17,834
15,017
12,243
9,571
7,035
4,651
2,431
0,37
-1,521
-3,201
-4,625
-5,75
-6,544
-7,004
-7,125
-6,893
-6,324
-5,489
-4,517
-3,588
-2,86
-2,399
-2,192
-2,245
-2,646
-3,428
-4,553
-5,775
-6,601
-6,755
-6,303
-5,322
-3,818
-1,89
0,388
2,407
2,707
0,392
-4,615
-12,075
-21,147
-30,637
-39,477
-45,492
-45,039
-35,471
-15,314
15,992
57,032
105,607
159,548
214,346
263,205
300,701
321,974
325,199
313,927
288,495
247,473
189,372
109,133
13,663
-79,649
-154,251
-190,582
-186,417
-158,471
-121,852
-94,295
-82,681
-78,361
-76,815
-74,868
-71,642
-72,055
-77,302
-85,136
-93,672
-100,82
-105,422
-107,743
-108,02
-106,229
-102,817
-98,601
-94,401
-90,779
-87,991
-85,995
-84,671
-84,039
-84,076
-84,671
-85,651
-86,825
-88,058
-89,264
-90,417
-91,502
-92,477
-93,305
-93,944
-94,35
-94,513
-94,441
-94,133
-93,586
-92,795
-91,75
-90,477
-89,034
-87,477
-85,87
-84,254
-82,651
-81,086
-79,581
-78,152
-76,811
-75,553
-74,364
-73,237
-72,174
-71,177
-70,252
-69,394
-68,591
-67,831
-67,101
-66,391
-65,692
-64,995
-64,291
-63,577
-62,85
-62,114
-61,373
-60,63
-59,882
-59,128
-58,367
-57,595
-56,81
-56,01
-55,19
-54,348
-53,483
-52,595
-51,684
-50,749
-49,791
-48,809
-47,802
-46,771
-45,715
-44,634
-43,528
-42,399
-41,247
-40,075
-38,885
-37,678
-36,457
-35,224
-33,979
-32,725
-31,463
-30,192
-28,914
-27,63
-26,342
-25,052
-23,761
-22,473
-21,189
-19,914
-18,649
-17,398
-16,164
-14,951
-13,762
-12,602
-11,476
-10,39
-9,349
-8,358
-7,425
-6,554
-5,753
-5,027
-4,381
-3,822
-3,354
-2,985
-2,719
-2,564
-2,524
-2,605
-2,814
-3,156
-3,635
-4,255
-5,021
-5,936
-7,002
-8,223
-9,601
-11,138
-12,834
-14,69
-16,705
-18,879
-21,208
-23,69
-26,319
-29,089
-31,995
-35,028
-38,181
-41,446
-44,813
-48,273
-51,816
-55,431
-59,109
-62,836
-66,603
-70,396
-74,205
-78,016
-81,819
-85,602
-89,354
-93,065
-96,723
-100,319
-103,844
-107,287
-110,639
-113,892
-117,038
-120,07
-122,98
-125,764
-128,418
-130,939
-133,324
-135,573
-137,685
-139,663
-141,507
-143,22
-144,805
-146,267
-147,61
-148,84
-149,962
-150,985
-151,916
-152,761
-153,53
-154,229
-154,867
-155,452
-155,991
-156,492
-156,962
-157,408
-157,838
-158,259
-158,677
-159,098
-159,529
-159,975
-160,439
-160,926
-161,438
-161,976
-162,542
-163,134
-163,753
-164,396
-165,06
-165,742
-166,437
-167,141
-167,847
-168,549
-169,238
-169,907
-170,546
-171,147
-171,699
-172,193
-172,619
-172,967
-173,227
-173,39
-173,444
-173,38
-173,188
-172,859
-172,384
-171,752
-170,956
-169,989
-168,842
-167,511
-165,989
-164,273
-162,36
-160,246
-157,932
-155,416
-152,699
-149,783
-146,67
-143,364
-139,871
-136,196
-132,347
-128,331
-124,159
-119,839
-115,382
-110,799
-106,103
-101,306
-96,42
-91,459
-86,437
-81,368
-76,266
-71,147
-66,025
-60,913
-55,828
-50,782
-45,789
-40,863
-36,014
-31,256
-26,6
-22,054
-17,631
-13,337
-9,182
-5,173
-1,315
2,385
5,923
9,297
12,502
15,539
18,405
21,102
23,631
25,992
28,188
30,224
32,101
33,826
35,404
36,84
38,141
39,314
40,366
41,305
42,138
42,873
43,517
44,078
44,563
44,979
45,333
45,632
45,883
46,092
46,265
46,409
46,529
46,631
46,719
46,799
46,875
46,952
47,033
47,123
47,226
47,345
47,484
47,647
47,836
48,054
48,304
48,587
48,907
49,264
49,661
50,1
50,582
51,11
51,686
52,314
52,996
53,735
54,534
55,396
56,324
57,321
58,39
59,533
60,753
62,053
63,435
64,902
66,454
68,093
69,821
71,637
73,542
75,534
77,612
79,774
82,02
84,346
86,75
89,229
91,781
94,402
97,088
99,834
102,636
105,485
108,375
111,297
114,242
117,2
120,161
123,115
126,05
128,956
131,821
134,635
137,387
140,063
142,653
145,147
147,532
149,799
151,937
153,936
155,789
157,488
159,025
160,395
161,59
162,606
163,436
164,076
164,523
164,772
164,823
164,674
164,329
163,79
163,064
162,16
161,087
159,855
158,475
156,959
155,321
153,575
151,732
149,802
147,798
145,729
143,608
141,447
139,259
137,063
134,876
132,718
130,614
128,591
126,677
124,899
123,277
121,833
120,592
119,592
118,87
118,457
118,38
118,659
119,303
120,317
121,691
123,395
125,382
127,592
129,96
132,441
135,014
137,662
140,36
143,06
145,688
148,215
150,653
153,004
155,305
157,61
159,937
162,415
165,302
168,733
172,748
177,354
182,267
187,17
191,957
196,403
200,22
203,606
207,047
211,024
216,592
225,177
237,561
254,282
276,109
300,572
324,102
346,12
363,916
378,721
394,893
407,827
412,005
399,04
357,46
287,81
201,402
116,98
55,501
30,747
40,877
70,078
102,558
124,787
132,852
134,933
136,237
138,954
142,875
143,329
138,646
130,485
120,633
110,879
102,147
94,506
88,001
82,853
79,021
75,935
72,909
69,563
65,726
61,45
56,937
52,271
47,521
42,857
38,427
34,315
30,576
27,178
24,041
21,107
18,329
15,673
13,14
10,747
8,503
6,399
4,399
2,455
0,532
-1,394
-3,339
-5,325
-7,374
-9,496
-11,683
-13,916
-16,175
-18,457
-20,766
-23,114
-25,503
-27,933
-30,396
-32,886
-35,397
-37,925
-40,458
-42,984
-45,486
-47,951
-50,37
-52,737
-55,042
-57,275
-59,421
-61,469
-63,406
-65,222
-66,905
-68,441
-69,819
-71,027
-72,058
-72,903
-73,558
-74,015
-74,271
-74,323
-74,168
-73,804
-73,231
-72,447
-71,453
-70,251
-68,842
-67,229
-65,417
-63,409
-61,212
-58,833
-56,279
-53,559
-50,682
-47,657
-44,495
-41,207
-37,804
-34,297
-30,699
-27,022
-23,277
-19,479
-15,639
-11,771
-7,885
-3,993
-0,107
3,762
7,605
11,411
15,172
18,876
22,516
26,083
29,568
32,963
36,262
39,456
42,54
45,507
48,352
51,068
53,653
56,101
58,408
60,572
62,588
64,455
66,171
67,735
69,146
70,403
71,507
72,457
73,255
73,901
74,395
74,74
74,935
74,984
74,888
74,649
74,269
73,752
73,1
72,318
71,409
70,378
69,229
67,967
66,598
65,128
63,561
61,905
60,165
58,348
56,461
54,511
52,504
50,447
48,347
46,21
44,044
41,855
39,651
37,437
35,221
33,01
30,811
28,632
26,479
24,359
22,281
20,25
18,273
16,357
14,506
12,727
11,025
9,402
7,864
6,414
5,054
3,786
2,612
1,533
0,55
-0,336
-1,126
-1,821
-2,421
-2,928
-3,342
-3,666
-3,901
-4,049
-4,114
-4,097
-4,002
-3,834
-3,596
-3,294
-2,932
-2,517
-2,054
-1,549
-1,008
-0,437
0,157
0,769
1,392
2,023
2,654
3,282
3,901
4,508
5,097
5,667
6,213
6,732
7,222
7,68
8,104
8,491
8,84
9,148
9,412
9,631
9,804
9,927
10,001
10,024
9,995
9,916
9,785
9,604
9,373
9,094
8,766
8,392
7,972
7,508
7,001
6,451
5,861
5,231
4,561
3,852
3,104
2,317
1,49
0,623
-0,286
-1,237
-2,231
-3,268
-4,349
-5,475
-6,644
-7,857
-9,114
-10,414
-11,756
-13,141
-14,568
-16,036
-17,545
-19,093
-20,68
-22,304
-23,963
-25,657
-27,382
-29,138
-30,923
-32,733
-34,567
-36,422
-38,294
-40,181
-42,076
-43,976
-45,876
-47,771
-49,654
-51,52
-53,364
-55,18
-56,963
-58,708
-60,409
-62,063
-63,665
-65,21
-66,695
-68,115
-69,468
-70,752
-71,962
-73,099
-74,161
-75,147
-76,057
-76,891
-77,65
-78,333
-78,943
-79,48
-79,946
-80,344
-80,676
-80,946
-81,159
-81,318
-81,429
-81,497
-81,528
-81,529
-81,504
-81,459
-81,402
-81,337
-81,271
-81,209
-81,156
-81,118
-81,101
-81,107
-81,141
-81,206
-81,303
-81,436
-81,604
-81,809
-82,051
-82,328
-82,641
-82,988
-83,368
-83,78
-84,22
-84,687
-85,175
-85,681
-86,201
-86,73
-87,261
-87,789
-88,308
-88,813
-89,296
-89,751
-90,173
-90,553
-90,885
-91,162
-91,379
-91,528
-91,604
-91,603
-91,52
-91,352
-91,098
-90,755
-90,321
-89,798
-89,184
-88,479
-87,686
-86,803
-85,834
-84,779
-83,641
-82,426
-81,136
-79,779
-78,357
-76,879
-75,349
-73,776
-72,165
-70,524
-68,858
-67,177
-65,489
-63,803
-62,129
-60,478
-58,86
-57,284
-55,761
-54,298
-52,905
-51,587
-50,351
-49,203
-48,147
-47,189
-46,336
-45,593
-44,967
-44,466
-44,097
-43,863
-43,772
-43,822
-44,023
-44,39
-44,875
-45,448
-46,122
-46,83
-47,824
-49,309
-51,048
-53,108
-54,549
-54,608
-53,954
-52,683
-54,204
-57,913
-65,695
-95,414
-111,192
-51,15
3,064
-50,72
-119,54
-109,288
-80,272
-78,378
-81,979
-83,972
-87,903
-91,279
-93,665
-95,079
-95,846
-96,626
-97,243
-97,605
-97,712
-97,506
-97,027
-96,291
-95,288
-94,028
-92,551
-90,983
-89,479
-88,157
-87,111
-86,386
-85,974
-85,924
-86,384
-87,353
-88,656
-89,963
-90,686
-90,387
-89,038
-86,634
-83,074
-78,485
-73,152
-67,801
-64,002
-63,14
-65,487
-70,718
-78,096
-86,331
-94,079
-99,407
-98,964
-89,429
-69,093
-37,664
3,927
53,656
109,123
167,093
222,436
269,43
303,62
322,041
323,265
307,19
274,674
227,81
170,832
109,286
48,406
-7,222
-54,123
-89,792
-112,717
-122,69
-121,219
-111,135
-95,588
-77,785
-60,331
-45,331
-34,359
-28,099
-26,366
-28,25
-32,452
-37,538
-42,479
-46,54
-49,195
-50,327
-50,069
-48,782
-47,086
-45,649
-44,849
-44,838
-45,649
-47,17
-49,284
-51,856
-54,632
-57,32
-59,745
-61,839
-63,604
-65,089
-66,297
-67,194
-67,752
-67,967
-67,842
-67,39
-66,609
-65,493
-64,058
-62,349
-60,437
-58,403
-56,3
-54,156
-51,988
-49,81
-47,637
-45,486
-43,366
-41,273
-39,211
-37,19
-35,221
-33,32
-31,496
-29,748
-28,073
-26,465
-24,922
-23,443
-22,025
-20,666
-19,366
-18,124
-16,943
-15,829
-14,78
-13,796
-12,874
-12,007
-11,191
-10,419
-9,683
-8,975
-8,287
-7,611
-6,941
-6,269
-5,59
-4,897
-4,182
-3,44
-2,663
-1,845
-0,978
-0,056
0,927
1,976
3,098
4,295
5,572
6,932
8,377
9,908
11,527
13,235
15,033
16,92
18,896
20,959
23,105
25,33
27,633
30,008
32,45
34,977
37,524
40,038
42,583
45,108
47,847
51,078
54,271
57,273
59,347
59,611
59,77
60,739
65,382
72,962
81,785
111,272
121,616
28,454
-43,703
79,26
211,665
144,521
41,337
51,685
87,91
93,177
94,518
96,935
96,099
94,654
93,395
93,029
93,056
92,699
92,123
91,3
90,24
89,043
87,686
86,16
84,483
82,662
80,705
78,619
76,413
74,097
71,681
69,173
66,586
63,929
61,213
58,451
55,653
52,833
50,002
47,172
44,357
41,568
38,816
36,113
33,469
30,896
28,402
25,997
23,688
21,485
19,392
17,417
15,564
13,838
12,241
10,776
9,445
8,248
7,185
6,256
5,46
4,794
4,256
3,845
3,555
3,384
3,327
3,378
3,533
3,784
4,126
4,551
5,052
5,623
6,255
6,941
7,673
8,444
9,247
10,075
10,921
11,778
12,639
13,501
14,357
15,202
16,033
16,847
17,639
18,407
19,148
19,861
20,543
21,192
21,806
22,385
22,927
23,431
23,897
24,323
24,711
25,06
25,37
25,641
25,875
26,072
26,232
26,356
26,447
26,503
26,528
26,522
26,485
26,419
26,325
26,204
26,055
25,879
25,676
25,446
25,19
24,907
24,597
24,262
23,901
23,516
23,106
22,674
22,22
21,746
21,252
20,741
20,214
19,673
19,121
18,56
17,992
17,419
16,845
16,272
15,702
15,139
14,584
14,042
13,514
13,004
12,515
12,051
11,614
11,208
10,836
10,503
10,209
9,96
9,756
9,6
9,494
9,439
9,437
9,488
9,594
9,753
9,967
10,234
10,553
10,924
11,344
11,811
12,323
12,878
13,472
14,102
14,765
15,457
16,176
16,916
17,674
18,445
19,224
20,007
20,789
21,564
22,327
23,074
23,799
24,498
25,166
25,799
26,393
26,944
27,45
27,906
28,311
28,662
28,957
29,194
29,373
29,491
29,55
29,549
29,488
29,368
29,191
28,957
28,67
28,329
27,939
27,502
27,021
26,499
25,942
25,353
24,737
24,099
23,444
22,779
22,108
21,437
20,772
20,118
19,48
18,863
18,273
17,715
17,193
16,711
16,274
15,885
15,549
15,267
15,044
14,881
14,781
14,745
14,774
14,87
15,032
15,261
15,558
15,92
16,347
16,838
17,39
18
18,664
19,381
20,145
20,952
21,797
22,675
23,581
24,511
25,457
26,416
27,381
28,348
29,311
30,265
31,207
32,13
33,031
33,906
34,751
35,563
36,339
37,077
37,775
38,43
39,043
39,613
40,139
40,621
41,06
41,457
41,812
42,127
42,405
42,647
42,857
43,038
43,195
43,332
43,452
43,561
43,664
43,764
43,868
43,978
44,098
44,232
44,383
44,556
44,754
44,979
45,234
45,52
45,838
46,188
46,568
46,976
47,409
47,863
48,333
48,816
49,306
49,8
50,291
50,773
51,241
51,687
52,104
52,483
52,814
53,088
53,294
53,422
53,462
53,4
53,229
52,939
52,525
51,978
51,29
50,455
49,468
48,324
47,02
45,546
43,899
42,077
40,084
37,926
35,609
33,14
30,527
27,782
24,917
21,943
18,867
15,685
12,391
8,984
5,472
1,884
-1,751
-5,41
-9,069
-12,692
-16,236
-19,647
-22,893
-25,965
-28,87
-31,598
-34,113
-36,359
-38,272
-39,801
-40,925
-41,657
-42,009
-41,981
-41,597
-40,891
-39,973
-39,002
-38,063
-37,162
-36,254
-35,259
-34,228
-33,362
-32,659
-31,925
-30,95
-29,396
-27,179
-24,624
-21,682
-17,901
-13,272
-8,064
-2,817
1,298
3,873
5,66
6,888
7,387
7,828
9,121
12,888
22,076
38,158
60,766
89,964
125,477
165,667
208,556
250,598
286,225
311,535
324,269
322,042
303,983
270,821
223,939
167,095
106,237
46,403
-7,835
-52,122
-84,107
-102,642
-107,378
-100,137
-84,151
-62,739
-39,754
-18,602
-1,209
11,1
17,698
19,079
16,159
10,267
3,309
-3,27
-8,724
-12,605
-14,942
-16,063
-16,289
-16,132
-16,256
-17,041
-18,632
-21,013
-23,96
-27,226
-30,59
-33,845
-36,836
-39,491
-41,802
-43,791
-45,501
-46,956
-48,165
-49,126
-49,829
-50,269
-50,442
-50,367
-50,082
-49,642
-49,122
-48,579
-48,039
-47,515
-47,009
-46,518
-46,04
-45,57
-45,09
-44,596
-44,091
-43,584
-43,085
-42,596
-42,112
-41,626
-41,126
-40,603
-40,049
-39,459
-38,826
-38,148
-37,422
-36,651
-35,84
-34,991
-34,105
-33,18
-32,215
-31,209
-30,161
-29,072
-27,939
-26,764
-25,548
-24,295
-23,009
-21,696
-20,358
-19,001
-17,629
-16,245
-14,855
-13,461
-12,066
-10,674
-9,288
-7,911
-6,546
-5,196
-3,864
-2,553
-1,265
-0,003
1,234
2,443
3,627
4,784
5,917
7,025
8,11
9,173
10,217
11,244
12,254
13,25
14,236
15,214
16,189
17,163
18,141
19,124
20,117
21,122
22,141
23,177
24,23
25,301
26,393
27,504
28,635
29,785
30,953
32,136
33,331
34,533
35,74
36,943
38,138
39,317
40,473
41,597
42,681
43,716
44,693
45,602
46,434
47,179
47,828
48,372
48,8
49,106
49,28
49,315
49,205
48,942
48,521
47,937
47,187
46,265
45,171
43,901
42,456
40,835
39,04
37,074
34,941
32,644
30,192
27,591
24,849
21,977
18,985
15,884
12,687
9,406
6,055
2,648
-0,801
-4,277
-7,767
-11,256
-14,731
-18,177
-21,581
-24,932
-28,216
-31,423
-34,541
-37,56
-40,47
-43,264
-45,933
-48,47
-50,869
-53,125
-55,235
-57,194
-59,002
-60,657
-62,159
-63,511
-64,714
-65,773
-66,691
-67,475
-68,13
-68,663
-69,082
-69,395
-69,61
-69,735
-69,778
-69,748
-69,654
-69,504
-69,305
-69,067
-68,796
-68,5
-68,187
-67,861
-67,53
-67,2
-66,874
-66,559
-66,259
-65,976
-65,716
-65,48
-65,271
-65,091
-64,941
-64,822
-64,734
-64,676
-64,648
-64,649
-64,676
-64,728
-64,804
-64,9
-65,016
-65,149
-65,297
-65,458
-65,631
-65,814
-66,005
-66,203
-66,406
-66,613
-66,824
-67,037
-67,253
-67,471
-67,691
-67,913
-68,137
-68,363
-68,59
-68,82
-69,051
-69,285
-69,523
-69,763
-70,008
-70,257
-70,513
-70,775
-71,044
-71,321
-71,607
-71,9
-72,202
-72,513
-72,832
-73,159
-73,494
-73,836
-74,186
-74,542
-74,904
-75,271
-75,642
-76,016
-76,393
-76,77
-77,148
-77,525
-77,901
-78,275
-78,648
-79,018
-79,385
-79,75
-80,112
-80,471
-80,827
-81,179
-81,529
-81,876
-82,22
-82,563
-82,904
-83,244
-83,584
-83,923
-84,264
-84,603
-84,94
-85,277
-85,618
-85,965
-86,319
-86,679
-87,039
-87,406
-87,793
-88,179
-88,549
-88,891
-89,184
-89,447
-89,712
-89,953
-90,14
-90,337
-90,597
-90,951
-91,442
-92,066
-92,751
-93,55
-94,591
-95,294
-95,13
-94,483
-93,521
-93,427
-95,49
-97,156
-95,5
-88,555
-78,469
-68,05
-46,857
-47,638
-136,654
-235,988
-186,223
-32,96
27,485
-49,805
-123,856
-114,574
-87,722
-86,298
-87,11
-85,124
-86,55
-87,997
-88,589
-88,33
-87,13
-86,012
-85,182
-84,489
-83,92
-83,439
-83,063
-82,793
-82,612
-82,478
-82,34
-82,225
-82,157
-82,129
-82,146
-82,208
-82,312
-82,465
-82,675
-82,939
-83,253
-83,618
-84,031
-84,494
-85,006
-85,565
-86,17
-86,818
-87,507
-88,233
-88,996
-89,792
-90,614
-91,46
-92,319
-93,163
-94,044
-94,985
-95,958
-97,037
-97,912
-98,332
-98,575
-98,551
-99,381
-101,973
-105,504
-109,843
-110,85
-109,224
-102,664
-69,577
-53,301
-128,59
-196,828
-134,594
-54,148
-69,137
-106,697
-111,384
-109,274
-108,877
-105,836
-103,116
-101,222
-100,152
-99,511
-98,484
-97,243
-95,848
-94,288
-92,66
-90,949
-89,144
-87,261
-85,307
-83,289
-81,211
-79,083
-76,912
-74,706
-72,475
-70,227
-67,973
-65,724
-63,49
-61,284
-59,116
-56,997
-54,939
-52,951
-51,043
-49,225
-47,505
-45,891
-44,39
-43,008
-41,751
-40,623
-39,629
-38,77
-38,049
-37,466
-37,021
-36,714
-36,542
-36,503
-36,593
-36,81
-37,148
-37,602
-38,165
-38,829
-39,587
-40,428
-41,338
-42,303
-43,307
-44,334
-45,369
-46,394
-47,39
-48,339
-49,227
-50,042
-50,772
-51,409
-51,94
-52,357
-52,647
-52,799
-52,798
-52,629
-52,269
-51,696
-50,887
-49,828
-48,503
-46,902
-45,003
-42,776
-40,192
-37,227
-33,861
-30,077
-25,868
-21,234
-16,198
-10,806
-5,113
0,81
6,891
13,076
19,318
25,576
31,809
37,95
43,913
49,657
55,166
60,446
65,561
70,576
75,546
80,635
86,071
91,966
98,351
105,107
111,88
118,391
124,523
130,075
134,946
139,499
144,362
150,562
159,629
172,673
190,302
213,106
240,905
272,223
304,854
335,619
360,542
376,687
381,868
373,889
352,125
317,955
273,967
224,465
174,656
128,255
88,332
58,155
39,34
31,833
34,448
44,127
57,168
71,274
84,547
94,904
101,271
103,252
101,067
96,208
90,457
84,747
79,719
75,965
73,684
73,004
73,874
75,684
77,68
79,417
80,677
81,392
81,644
81,48
80,936
80,195
79,526
79,116
79,06
79,374
79,997
80,891
82,061
83,501
85,2
87,165
89,389
91,861
94,587
97,552
100,718
104,042
107,45
110,874
114,272
117,617
120,89
124,086
127,19
130,194
133,099
135,899
138,586
141,151
143,58
145,862
147,995
149,978
151,818
153,523
155,101
156,555
157,895
159,123
160,244
161,263
162,18
162,996
163,717
164,349
164,9
165,38
165,798
166,164
166,487
166,778
167,044
167,295
167,536
167,774
168,017
168,269
168,538
168,83
169,149
169,504
169,897
170,335
170,821
171,359
171,95
172,597
173,301
174,062
174,88
175,753
176,682
177,664
178,697
179,78
180,909
182,079
183,287
184,526
185,791
187,075
188,372
189,674
190,974
192,266
193,542
194,796
196,021
197,209
198,353
199,446
200,481
201,45
202,346
203,163
203,894
204,532
205,073
205,509
205,835
206,045
206,134
206,095
205,922
205,612
205,16
204,56
203,811
202,908
201,851
200,638
199,267
197,738
196,052
194,208
192,209
190,055
187,749
185,293
182,692
179,949
177,07
174,058
170,92
167,662
164,289
160,807
157,225
153,548
149,785
145,944
142,034
138,066
134,048
129,993
125,91
121,811
117,706
113,607
109,525
105,471
101,453
97,484
93,573
89,729
85,962
82,281
78,693
75,208
71,832
68,571
65,431
62,417
59,534
56,786
54,176
51,707
49,381
47,2
45,166
43,278
41,536
39,939
38,483
37,165
35,982
34,928
33,998
33,184
32,482
31,883
31,38
30,966
30,632
30,372
30,177
30,038
29,948
29,899
29,883
29,892
29,921
29,961
30,006
30,051
30,09
30,117
30,128
30,118
30,081
30,015
29,915
29,778
29,602
29,385
29,125
28,819
28,472
28,084
27,662
27,232
26,729
26,098
25,393
24,605
24,082
24,142
24,293
24,146
22,46
18,421
13,793
10,527
13,384
20,716
31,521
66,438
76,198
-42,089
-163,366
-48,34
166,626
161,036
-6,551
-75,469
-28,874
9,706
14,925
14,936
13,517
9,061
5,202
3,332
2,886
2,725
2,264
1,536
0,856
0,506
0,308
0,297
-0,456
-2,691
-5,741
-9,504
-10,586
-9,566
-4,56
22,15
34,991
-27,394
-84,072
-33,749
31,434
18,202
-13,648
-18,612
-18,094
-19,079
-17,993
-17,267
-17,318
-18,141
-19,411
-20,458
-21,418
-22,34
-23,21
-24,105
-25,008
-25,905
-26,805
-27,71
-28,617
-29,526
-30,439
-31,355
-32,275
-33,198
-34,126
-35,059
-35,997
-36,941
-37,892
-38,848
-39,811
-40,78
-41,755
-42,734
-43,717
-44,704
-45,693
-46,682
-47,672
-48,66
-49,645
-50,626
-51,601
-52,568
-53,525
-54,47
-55,4
-56,313
-57,208
-58,081
-58,93
-59,755
-60,553
-61,322
-62,061
-62,768
-63,441
-64,081
-64,685
-65,253
-65,784
-66,279
-66,737
-67,159
-67,545
-67,898
-68,218
-68,506
-68,765
-68,995
-69,199
-69,379
-69,537
-69,674
-69,794
-69,899
-69,992
-70,076
-70,154
-70,229
-70,303
-70,381
-70,464
-70,556
-70,659
-70,775
-70,908
-71,059
-71,23
-71,423
-71,64
-71,881
-72,148
-72,44
-72,759
-73,103
-73,472
-73,866
-74,284
-74,724
-75,186
-75,669
-76,171
-76,691
-77,229
-77,782
-78,349
-78,93
-79,521
-80,122
-80,73
-81,344
-81,962
-82,582
-83,203
-83,822
-84,439
-85,05
-85,654
-86,25
-86,836
-87,411
-87,973
-88,523
-89,058
-89,58
-90,087
-90,582
-91,063
-91,533
-91,991
-92,439
-92,877
-93,306
-93,728
-94,142
-94,551
-94,954
-95,353
-95,747
-96,139
-96,528
-96,915
-97,301
-97,685
-98,069
-98,452
-98,835
-99,218
-99,602
-99,987
-100,373
-100,76
-101,148
-101,537
-101,926
-102,314
-102,7
-103,081
-103,456
-103,822
-104,177
-104,517
-104,839
-105,14
-105,416
-105,665
-105,883
-106,066
-106,212
-106,315
-106,375
-106,386
-106,347
-106,253
-106,103
-105,895
-105,626
-105,294
-104,899
-104,439
-103,913
-103,32
-102,659
-101,929
-101,132
-100,265
-99,33
-98,329
-97,263
-96,136
-94,952
-93,714
-92,43
-91,104
-89,744
-88,356
-86,946
-85,521
-84,088
-82,654
-81,227
-79,816
-78,428
-77,072
-75,758
-74,495
-73,292
-72,158
-71,1
-70,124
-69,239
-68,452
-67,769
-67,198
-66,745
-66,419
-66,227
-66,179
-66,284
-66,546
-66,97
-67,558
-68,312
-69,232
-70,314
-71,55
-72,937
-74,472
-76,154
-77,984
-79,96
-82,08
-84,345
-86,754
-89,305
-91,991
-94,801
-97,714
-100,72
-103,809
-106,977
-110,225
-113,547
-116,927
-120,354
-123,82
-127,3
-130,768
-134,176
-137,458
-140,568
-143,474
-146,159
-148,621
-150,852
-152,845
-154,598
-156,12
-157,413
-158,468
-159,327
-160
-160,476
-160,865
-160,932
-160,55
-160,079
-159,491
-159,968
-162,441
-166,117
-170,874
-172,539
-171,748
-166,131
-134,073
-118,81
-194,943
-264,009
-202,783
-123,193
-138,468
-175,713
-179,38
-175,289
-171,794
-164,36
-155,806
-146,684
-137,221
-127,497
-117,222
-106,943
-96,975
-87,439
-78,496
-69,986
-60,824
-49,558
-35,162
-16,277
5,769
28,855
54,32
80,878
110,317
144,702
174,382
192,483
190,37
158,628
106,261
42,564
-23,611
-79,75
-126,775
-166,24
-195,957
-217,341
-228,052
-226,712
-216,387
-200,022
-181,047
-162,748
-147,198
-135,764
-129,233
-127,519
-129,729
-134,505
-140,36
-146,197
-151,213
-154,943
-157,288
-158,352
-158,506
-158,301
-158,301
-158,827
-160,008
-161,817
-164,083
-166,625
-169,223
-171,66
-173,771
-175,466
-176,745
-177,637
-178,18
-178,4
-178,302
-177,887
-177,158
-176,121
-174,787
-173,186
-171,365
-169,387
-167,339
-165,287
-163,272
-161,322
-159,447
-157,653
-155,95
-154,338
-152,812
-151,379
-150,05
-148,838
-147,761
-146,828
-146,039
-145,391
-144,876
-144,487
-144,217
-144,063
-144,017
-144,076
-144,239
-144,503
-144,87
-145,34
-145,904
-146,557
-147,287
-148,086
-148,944
-149,851
-150,793
-151,762
-152,746
-153,737
-154,726
-155,705
-156,664
-157,592
-158,48
-159,318
-160,094
-160,796
-161,413
-161,931
-162,34
-162,626
-162,778
-162,785
-162,635
-162,316
-161,819
-161,131
-160,244
-159,145
-157,824
-156,27
-154,475
-152,429
-150,123
-147,549
-144,698
-141,565
-138,142
-134,424
-130,406
-126,081
-121,444
-116,493
-111,224
-105,636
-99,728
-93,5
-86,954
-80,095
-72,926
-65,455
-57,69
-49,638
-41,311
-32,72
-23,877
-14,798
-5,496
4,011
13,707
23,574
33,592
43,741
54,001
64,35
74,766
85,228
95,712
106,195
116,655
127,067
137,408
147,656
157,787
167,778
177,607
187,253
196,696
205,915
214,891
223,609
232,051
240,204
248,053
255,586
262,794
269,666
276,196
282,377
288,204
293,673
298,781
303,529
307,917
311,946
315,619
318,94
321,915
324,55
326,852
328,829
330,49
331,846
332,906
333,683
334,188
334,433
334,432
334,197
333,742
333,08
332,225
331,19
329,987
328,629
327,129
325,497
323,746
321,887
319,93
317,884
315,758
313,563
311,309
309,004
306,681
304,287
301,784
299,245
296,626
294,189
292,225
290,231
288,082
284,993
280,063
274,961
270,553
269,927
272,339
276,476
302,537
309,242
210,906
132,763
248,4
374,766
307,176
204,077
209,227
239,065
240,306
238,333
237,446
233,604
229,246
225,15
222,053
219,48
216,709
213,891
210,991
208,017
205,061
202,099
199,117
196,128
193,134
190,137
187,137
184,138
181,142
178,152
175,169
172,197
169,237
166,292
163,365
160,457
157,57
154,707
151,868
149,055
146,268
143,509
140,777
138,071
135,391
132,735
130,102
127,491
124,898
122,323
119,763
117,216
114,679
112,152
109,63
107,112
104,595
102,077
99,556
97,028
94,491
91,944
89,383
86,807
84,213
81,599
78,963
76,304
73,62
70,909
68,17
65,403
62,608
59,785
56,935
54,06
51,161
48,24
45,302
42,347
39,38
36,403
33,42
30,433
27,446
24,463
21,487
18,521
15,569
12,633
9,718
6,827
3,962
1,127
-1,675
-4,441
-7,17
-9,857
-12,5
-15,097
-17,646
-20,144
-22,59
-24,984
-27,324
-29,611
-31,846
-34,031
-36,166
-38,256
-40,302
-42,308
-44,277
-46,213
-48,119
-49,998
-51,856
-53,696
-55,523
-57,34
-59,152
-60,964
-62,778
-64,601
-66,435
-68,284
-70,152
-72,042
-73,959
-75,905
-77,883
-79,897
-81,949
-84,041
-86,174
-88,347
-90,562
-92,816
-95,108
-97,433
-99,789
-102,17
-104,572
-106,988
-109,411
-111,834
-114,25
-116,65
-119,025
-121,366
-123,662
-125,903
-128,079
-130,179
-132,192
-134,107
-135,912
-137,596
-139,147
-140,554
-141,805
-142,889
-143,795
-144,51
-145,026
-145,331
-145,417
-145,276
-144,9
-144,283
-143,42
-142,308
-140,943
-139,323
-137,448
-135,317
-132,933
-130,298
-127,415
-124,289
-120,926
-117,332
-113,516
-109,485
-105,251
-100,823
-96,212
-91,432
-86,494
-81,413
-76,202
-70,878
-65,455
-59,95
-54,378
-48,757
-43,104
-37,434
-31,764
-26,111
-20,489
-14,914
-9,4
-3,96
1,392
6,644
11,784
16,802
21,687
26,431
31,024
35,46
39,732
43,835
47,763
51,514
55,085
58,475
61,684
64,711
67,56
70,232
72,731
75,063
77,231
79,242
81,103
82,821
84,403
85,859
87,197
88,425
89,552
90,587
91,539
92,415
93,223
93,972
94,669
95,321
95,936
96,519
97,079
97,621
98,153
98,678
99,203
99,731
100,266
100,809
101,362
101,924
102,496
103,077
103,663
104,253
104,843
105,431
106,011
106,581
107,133
107,661
108,16
108,622
109,041
109,408
109,718
109,963
110,138
110,237
110,253
110,182
110,018
109,752
109,38
108,893
108,283
107,541
106,66
105,633
104,455
103,124
101,638
99,997
98,206
96,268
94,188
91,973
89,623
87,141
84,527
81,783
78,914
75,928
72,832
69,635
66,35
62,989
59,565
56,089
52,559
48,973
45,332
41,643
37,921
34,191
30,486
26,841
23,308
19,935
16,769
13,862
11,234
8,896
6,857
5,125
3,72
2,668
1,965
1,588
1,523
1,727
2,14
2,694
3,26
3,725
4,021
4,042
3,715
2,983
1,756
0,018
-2,18
-4,834
-7,951
-11,422
-15,116
-18,686
-21,52
-23,209
-23,543
-22,386
-19,66
-15,319
-9,395
-2,469
4,137
9,373
12,9
14,928
16,101
17,159
18,726
21,994
29,805
45,199
69,97
104,874
147,466
192,89
237,994
280,847
323,437
370,837
423,639
475,896
511,149
508,531
453,505
344,436
201,087
54,714
-62,461
-127,839
-140,998
-116,936
-79,295
-48,715
-32,892
-29,673
-30,105
-27,59
-21,443
-14,018
-9,705
-10,038
-13,46
-18,111
-21,841
-23,577
-23,478
-21,608
-18,119
-13,551
-8,466
-3,499
0,669
3,736
5,667
6,442
6,136
4,87
2,758
0,024
-3,061
-6,309
-9,57
-12,749
-15,809
-18,684
-21,288
-23,574
-25,506
-27,082
-28,321
-29,227
-29,796
-30,041
-29,985
-29,677
-29,178
-28,548
-27,848
-27,125
-26,412
-25,737
-25,124
-24,584
-24,124
-23,74
-23,416
-23,145
-22,925
-22,754
-22,633
-22,551
-22,492
-22,444
-22,393
-22,328
-22,247
-22,135
-21,973
-21,778
-21,562
-21,337
-21,127
-20,913
-20,659
-20,39
-20,13
-19,808
-19,368
-18,767
-17,936
-16,925
-15,834
-14,604
-13,131
-11,687
-10,596
-9,662
-8,905
-8,385
-7,407
-7,846
-11,53
-15,85
-20,015
-19,236
-7,777
8,011
23,894
33,57
28,382
15,986
2,868
-6,524
-4,844
2,654
10,643
17,938
21,293
22,588
24,246
25,803
27,565
29,369
30,722
31,943
33,289
34,672
36,074
37,522
39,008
40,511
42,017
43,478
44,835
46,107
47,311
48,435
49,478
50,435
51,296
52,066
52,744
53,325
53,799
54,162
54,407
54,532
54,531
54,4
54,135
53,734
53,194
52,511
51,686
50,715
49,599
48,337
46,929
45,376
43,678
41,839
39,861
37,748
35,504
33,135
30,646
28,045
25,337
22,53
19,631
16,649
13,593
10,473
7,298
4,079
0,828
-2,444
-5,724
-9
-12,26
-15,493
-18,686
-21,828
-24,908
-27,914
-30,837
-33,665
-36,389
-39
-41,488
-43,846
-46,068
-48,145
-50,075
-51,852
-53,473
-54,937
-56,241
-57,384
-58,367
-59,189
-59,853
-60,361
-60,716
-60,922
-60,984
-60,908
-60,701
-60,37
-59,923
-59,369
-58,715
-57,971
-57,145
-56,248
-55,288
-54,275
-53,218
-52,129
-51,015
-49,886
-48,752
-47,621
-46,501
-45,398
-44,32
-43,273
-42,261
-41,291
-40,366
-39,49
-38,668
-37,9
-37,191
-36,542
-35,953
-35,426
-34,959
-34,551
-34,203
-33,911
-33,674
-33,489
-33,354
-33,266
-33,221
-33,215
-33,246
-33,308
-33,398
-33,51
-33,64
-33,785
-33,938
-34,097
-34,257
-34,416
-34,569
-34,715
-34,85
-34,973
-35,08
-35,171
-35,243
-35,295
-35,327
-35,337
-35,325
-35,292
-35,237
-35,162
-35,067
-34,952
-34,82
-34,67
-34,505
-34,326
-34,133
-33,93
-33,718
-33,5
-33,277
-33,052
-32,828
-32,607
-32,392
-32,184
-31,987
-31,801
-31,629
-31,471
-31,331
-31,209
-31,106
-31,023
-30,962
-30,922
-30,906
-30,912
-30,94
-30,991
-31,065
-31,159
-31,274
-31,409
-31,562
-31,733
-31,92
-32,122
-32,338
-32,566
-32,804
-33,05
-33,303
-33,56
-33,819
-34,078
-34,336
-34,59
-34,839
-35,082
-35,314
-35,536
-35,741
-35,908
-36,082
-36,286
-36,499
-36,786
-36,89
-36,604
-36,166
-35,503
-35,561
-37,106
-39,453
-42,496
-42,767
-40,859
-34,846
-6,618
7,46
-55,336
-112,273
-59,811
7,861
-4,608
-36,095
-40,085
-38,462
-38,367
-36,148
-34,295
-33,233
-32,962
-33,15
-33,114
-32,998
-32,852
-32,664
-32,517
-32,393
-32,282
-32,195
-32,135
-32,103
-32,1
-32,127
-32,186
-32,279
-32,406
-32,568
-32,767
-33,001
-33,273
-33,582
-33,929
-34,313
-34,733
-35,19
-35,682
-36,21
-36,771
-37,366
-37,994
-38,654
-39,344
-40,065
-40,813
-41,588
-42,388
-43,209
-44,048
-44,903
-45,77
-46,644
-47,523
-48,402
-49,278
-50,148
-51,006
-51,851
-52,678
-53,485
-54,268
-55,023
-55,749
-56,443
-57,103
-57,726
-58,312
-58,859
-59,366
-59,834
-60,261
-60,648
-60,994
-61,3
-61,567
-61,796
-61,987
-62,144
-62,269
-62,365
-62,436
-62,486
-62,521
-62,544
-62,563
-62,58
-62,603
-62,636
-62,685
-62,754
-62,85
-62,976
-63,137
-63,338
-63,582
-63,873
-64,214
-64,607
-65,053
-65,554
-66,11
-66,721
-67,386
-68,104
-68,873
-69,69
-70,553
-71,458
-72,401
-73,377
-74,38
-75,404
-76,442
-77,486
-78,526
-79,556
-80,564
-81,542
-82,481
-83,373
-84,207
-84,976
-85,672
-86,286
-86,812
-87,244
-87,575
-87,8
-87,913
-87,911
-87,792
-87,553
-87,194
-86,714
-86,114
-85,398
-84,568
-83,63
-82,587
-81,446
-80,212
-78,893
-77,497
-76,035
-74,517
-72,954
-71,36
-69,75
-68,139
-66,541
-64,972
-63,446
-61,977
-60,579
-59,267
-58,052
-56,947
-55,964
-55,115
-54,412
-53,868
-53,492
-53,295
-53,283
-53,468
-53,854
-54,447
-55,248
-56,257
-57,47
-58,889
-60,51
-62,328
-64,34
-66,54
-68,921
-71,479
-74,204
-77,081
-80,098
-83,236
-86,475
-89,799
-93,187
-96,619
-100,083
-103,571
-107,075
-110,602
-114,141
-117,674
-121,18
-124,626
-127,975
-131,195
-134,236
-137,042
-139,582
-141,837
-143,806
-145,507
-146,926
-148,028
-148,773
-149,112
-149,034
-148,536
-147,609
-146,261
-144,517
-142,46
-140,251
-138,07
-136,015
-134,114
-132,313
-130,572
-129,02
-127,685
-126,408
-125,023
-123,254
-121,015
-118,594
-116,088
-113,183
-109,778
-106,065
-102,344
-99,435
-97,765
-96,761
-96,127
-96,002
-96,023
-95,33
-92,616
-85,607
-72,553
-53,427
-28,241
3,164
39,894
80,027
120,591
157,12
185,356
203,06
208,493
199,959
177,337
142,113
97,269
47,731
-1,232
-46,139
-84,132
-112,325
-129,357
-135,346
-131,633
-121,366
-108,149
-94,221
-81,367
-71,481
-65,479
-63,581
-65,457
-69,627
-74,411
-78,986
-82,766
-85,183
-86,11
-85,511
-83,488
-80,665
-77,721
-74,993
-72,708
-70,963
-69,695
-68,893
-68,514
-68,36
-68,198
-67,858
-67,233
-66,305
-65,108
-63,652
-61,942
-59,99
-57,813
-55,43
-52,835
-50,023
-46,985
-43,727
-40,275
-36,676
-32,991
-29,28
-25,594
-21,97
-18,428
-14,987
-11,657
-8,444
-5,348
-2,367
0,491
3,217
5,797
8,22
10,481
12,58
14,518
16,3
17,933
19,423
20,777
22
23,098
24,074
24,928
25,663
26,282
26,79
27,195
27,504
27,726
27,869
27,944
27,958
27,921
27,84
27,72
27,568
27,388
27,187
26,969
26,74
26,503
26,264
26,029
25,8
25,584
25,384
25,204
25,047
24,917
24,817
24,747
24,71
24,708
24,74
24,807
24,911
25,05
25,226
25,437
25,682
25,96
26,269
26,608
26,973
27,365
27,78
28,218
28,678
29,159
29,66
30,181
30,722
31,282
31,861
32,459
33,076
33,711
34,364
35,034
35,72
36,422
37,139
37,871
38,618
39,378
40,152
40,94
41,742
42,559
43,392
44,241
45,107
45,993
46,9
47,83
48,785
49,768
50,781
51,827
52,91
54,03
55,191
56,396
57,645
58,942
60,289
61,687
63,14
64,649
66,217
67,848
69,543
71,305
73,138
75,043
77,024
79,083
81,222
83,443
85,748
88,139
90,618
93,185
95,841
98,587
101,423
104,346
107,357
110,453
113,632
116,892
120,231
123,644
127,129
130,682
134,301
137,981
141,719
145,51
149,349
153,231
157,152
161,107
165,088
169,091
173,11
177,139
181,171
185,201
189,221
193,225
197,206
201,157
205,071
208,942
212,762
216,526
220,227
223,859
227,418
230,897
234,292
237,599
240,812
243,928
246,943
249,852
252,654
255,343
257,919
260,378
262,719
264,94
267,039
269,017
270,871
272,601
274,207
275,689
277,048
278,284
279,398
280,393
281,271
282,033
282,684
283,225
283,661
283,993
284,227
284,364
284,409
284,365
284,235
284,024
283,733
283,368
282,931
282,425
281,852
281,216
280,517
279,758
278,941
278,067
277,136
276,15
275,109
274,015
272,867
271,665
270,41
269,099
267,732
266,307
264,822
263,275
261,664
259,987
258,24
256,421
254,526
252,555
250,502
248,366
246,143
243,831
241,428
238,931
236,339
233,65
230,864
227,98
225
221,923
218,751
215,486
212,13
208,685
205,154
201,542
197,85
194,085
190,251
186,353
182,397
178,39
174,338
170,248
166,127
161,981
157,819
153,646
149,471
145,301
141,142
137,002
132,888
128,807
124,763
120,765
116,815
112,916
109,077
105,3
101,59
97,977
94,395
90,794
87,254
83,719
80,48
77,864
75,283
72,584
68,877
63,132
57,272
52,302
51,695
54,598
59,391
89,013
96,54
-15,944
-104,976
28,751
174,447
96
-23,306
-16,82
18,376
20,095
17,947
17,07
12,742
7,822
3,205
-0,272
-3,165
-6,318
-9,554
-12,913
-16,385
-19,863
-23,376
-26,936
-30,53
-34,152
-37,8
-41,472
-45,164
-48,87
-52,588
-56,313
-60,043
-63,773
-67,5
-71,221
-74,932
-78,632
-82,316
-85,982
-89,629
-93,254
-96,855
-100,431
-103,98
-107,502
-110,996
-114,461
-117,896
-121,301
-124,677
-128,024
-131,34
-134,629
-137,888
-141,12
-144,324
-147,501
-150,653
-153,778
-156,878
-159,952
-163
-166,022
-169,016
-171,982
-174,918
-177,823
-180,695
-183,532
-186,332
-189,094
-191,816
-194,496
-197,132
-199,723
-202,267
-204,764
-207,211
-209,608
-211,954
-214,248
-216,491
-218,68
-220,817
-222,9
-224,931
-226,909
-228,834
-230,707
-232,529
-234,3
-236,022
-237,697
-239,327
-240,913
-242,46
-243,968
-245,443
-246,886
-248,302
-249,693
-251,061
-252,411
-253,745
-255,064
-256,369
-257,664
-258,947
-260,22
-261,483
-262,733
-263,971
-265,194
-266,399
-267,584
-268,747
-269,884
-270,992
-272,067
-273,107
-274,107
-275,063
-275,972
-276,828
-277,627
-278,364
-279,032
-279,627
-280,144
-280,576
-280,92
-281,17
-281,323
-281,375
-281,321
-281,16
-280,888
-280,504
-280,007
-279,394
-278,668
-277,829
-276,881
-275,827
-274,672
-273,423
-272,084
-270,662
-269,164
-267,596
-265,966
-264,28
-262,545
-260,768
-258,96
-257,131
-255,291
-253,45
-251,62
-249,811
-248,033
-246,298
-244,613
-242,988
-241,431
-239,951
-238,556
-237,255
-236,057
-234,971
-234,005
-233,168
-232,468
-231,909
-231,494
-231,225
-231,101
-231,12
-231,277
-231,565
-231,979
-232,513
-233,165
-233,932
-234,813
-235,802
-236,896
-238,09
-239,376
-240,747
-242,188
-243,68
-245,204
-246,752
-248,32
-249,914
-251,535
-253,173
-254,819
-256,462
-258,077
-259,632
-261,069
-262,306
-263,277
-263,933
-264,244
-264,212
-263,836
-263,107
-262,022
-260,565
-258,724
-256,511
-253,916
-250,918
-247,543
-243,847
-239,954
-236,076
-232,378
-228,975
-225,957
-223,343
-221,146
-219,375
-217,991
-216,938
-216,187
-215,693
-215,447
-215,449
-215,557
-215,577
-215,192
-213,9
-211,309
-207,095
-201,041
-193,326
-184,279
-174,197
-163,589
-152,932
-142,415
-132,313
-122,112
-109,902
-93,857
-72,327
-45,648
-16,766
12,468
42,242
77,863
126,629
189,445
259,019
315,128
333,061
297,457
207,176
81,759
-47,61
-150,911
-209,217
-222,4
-203,248
-172,442
-146,804
-131,952
-126,801
-123,665
-116,581
-105,975
-94,515
-86,499
-84,122
-86,2
-90,521
-94,857
-98,115
-99,984
-100,315
-99,07
-96,308
-92,382
-87,978
-83,823
-80,306
-77,568
-75,598
-74,301
-73,631
-73,498
-73,71
-73,997
-74,128
-73,991
-73,557
-72,855
-71,896
-70,654
-69,097
-67,2
-64,967
-62,414
-59,547
-56,365
-52,865
-49,066
-45,015
-40,785
-36,458
-32,086
-27,699
-23,32
-18,967
-14,662
-10,424
-6,264
-2,176
1,836
5,764
9,596
13,317
16,919
20,404
23,775
27,042
30,207
33,276
36,252
39,14
41,942
44,662
47,298
49,848
52,31
54,69
56,991
59,22
61,384
63,491
65,547
67,564
69,549
71,511
73,456
75,394
77,33
79,274
81,235
83,219
85,237
87,296
89,405
91,572
93,804
96,109
98,493
100,96
103,518
106,168
108,916
111,764
114,715
117,77
120,931
124,199
127,574
131,055
134,641
138,33
142,118
146,003
149,981
154,046
158,195
162,421
166,719
171,082
175,504
179,976
184,491
189,04
193,614
198,203
202,798
207,389
211,966
216,52
221,04
225,517
229,941
234,302
238,591
242,799
246,916
250,935
254,846
258,643
262,317
265,863
269,275
272,545
275,669
278,642
281,459
284,117
286,611
288,939
291,099
293,09
294,911
296,564
298,049
299,37
300,529
301,53
302,378
303,077
303,634
304,054
304,345
304,513
304,567
304,514
304,364
304,124
303,803
303,411
302,956
302,447
301,893
301,303
300,685
300,049
299,403
298,756
298,117
297,495
296,897
296,333
295,809
295,333
294,912
294,552
294,258
294,036
293,889
293,821
293,836
293,936
294,123
294,398
294,763
295,218
295,763
296,398
297,121
297,933
298,831
299,813
300,879
302,027
303,253
304,556
305,933
307,382
308,9
310,482
312,127
313,831
315,589
317,397
319,252
321,15
323,087
325,057
327,059
329,088
331,14
333,213
335,303
337,407
339,524
341,65
343,784
345,922
348,063
350,205
352,346
354,483
356,616
358,742
360,861
362,97
365,068
367,153
369,225
371,281
373,321
375,343
377,346
379,329
381,293
383,236
385,16
387,064
388,951
390,82
392,674
394,514
396,34
398,155
399,959
401,755
403,543
405,327
407,108
408,888
410,671
412,458
414,254
416,06
417,88
419,715
421,569
423,445
425,345
427,272
429,23
431,223
433,253
435,325
437,443
439,609
441,828
444,101
446,431
448,819
451,267
453,775
456,345
458,976
461,668
464,422
467,237
470,11
473,042
476,028
479,067
482,154
485,285
488,456
491,66
494,895
498,154
501,433
504,726
508,027
511,332
514,632
517,922
521,192
524,436
527,644
530,805
533,911
536,95
539,911
542,786
545,564
548,236
550,794
553,23
555,537
557,713
559,751
561,646
563,394
564,99
566,43
567,712
568,835
569,798
570,604
571,254
571,751
572,104
572,318
572,398
572,347
572,158
571,834
571,392
570,851
570,24
569,594
568,95
568,357
567,884
567,589
567,53
567,755
568,296
569,188
570,475
572,208
574,45
577,247
580,613
584,545
589,02
593,995
599,416
605,187
611,154
617,175
623,111
628,845
634,298
639,375
643,959
647,92
651,114
653,42
654,76
655,079
654,349
652,576
649,78
646,065
641,628
636,668
631,404
626,048
620,764
615,763
611,286
607,544
604,779
603,253
603,169
604,727
608,087
613,293
620,481
629,819
641,252
654,528
669,129
684,249
699,099
712,958
724,812
733,372
737,616
737,111
732,115
723,442
712,291
699,831
687,398
677,124
668,37
656,678
637,452
605,543
562,716
518,978
479,239
442,513
391,661
294,934
128,664
-120,888
-438,95
-783,448
-1108,344
-1365,024
-1531,85
-1618,055
-1646,966
-1656,451
-1669,753
-1690,05
-1712,388
-1722,736
-1714,98
-1693,309
-1663,191
-1631,188
-1599,577
-1566,988
-1532,5
-1495,869
-1458,386
-1421,232
-1385,127
-1351,446
-1321,531
-1296,31
-1276,356
-1260,809
-1247,583
-1235,518
-1223,98
-1212,235
-1199,988
-1187,018
-1173,181
-1159,256
-1146,696
-1136,251
-1128,13
-1122,302
-1118,343
-1115,916
-1114,761
-1114,255
-1113,533
-1112,018
-1109,401
-1105,553
-1100,551
-1094,39
-1086,974
-1078,342
-1068,643
-1058,041
-1046,721
-1034,835
-1022,467
-1009,742
-996,839
-983,925
-971,166
-958,689
-946,561
-934,86
-923,676
-913,108
-903,26
-894,189
-885,898
-878,37
-871,564
-865,431
-859,924
-854,978
-850,507
-846,434
-842,69
-839,221
-835,986
-832,933
-829,998
-827,105
-824,172
-821,13
-817,928
-814,523
-810,885
-806,991
-802,821
-798,36
-793,589
-788,483
-783,017
-777,164
-770,901
-764,219
-757,124
-749,644
-741,833
-733,746
-725,446
-716,999
-708,443
-699,816
-691,147
-682,458
-673,801
-665,242
-656,817
-648,546
-640,41
-632,335
-624,229
-615,992
-607,454
-598,418
-588,773
-578,505
-567,73
-556,702
-545,686
-534,832
-524,197
-513,824
-503,363
-492,085
-479,168
-463,608
-444,545
-421,662
-395,019
-364,86
-332,584
-300,574
-271,289
-247,516
-231,619
-224,896
-228,29
-242,444
-266,146
-296,678
-331,035
-365,622
-397,457
-424,764
-445,704
-458,51
-463,103
-460,713
-453,048
-442,505
-430,797
-418,672
-407,24
-397,782
-390,723
-385,869
-382,548
-379,53
-376,193
-372,534
-368,348
-363,349
-357,441
-350,652
-343,368
-336,332
-329,968
-324,379
-319,618
-315,64
-312,429
-310
-308,214
-306,782
-305,457
-304,084
-302,602
-301,037
-299,398
-297,648
-295,745
-293,65
-291,353
-288,863
-286,181
-283,303
-280,22
-276,945
-273,522
-270,023
-266,525
-263,08
-259,714
-256,435
-253,25
-250,169
-247,199
-244,341
-241,584
-238,92
-236,348
-233,869
-231,492
-229,214
-227,027
-224,916
-222,866
-220,866
-218,905
-216,975
-215,068
-213,175
-211,292
-209,415
-207,544
-205,676
-203,806
-201,927
-200,031
-198,111
-196,16
-194,17
-192,134
-190,045
-187,897
-185,685
-183,406
-181,054
-178,626
-176,119
-173,528
-170,851
-168,083
-165,223
-162,266
-159,211
-156,055
-152,797
-149,436
-145,971
-142,403
-138,733
-134,962
-131,093
-127,127
-123,067
-118,917
-114,679
-110,359
-105,96
-101,487
-96,947
-92,344
-87,686
-82,979
-78,232
-73,452
-68,648
-63,827
-58,998
-54,17
-49,354
-44,557
-39,792
-35,067
-30,395
-25,785
-21,25
-16,802
-12,452
-8,212
-4,092
-0,106
3,738
7,428
10,955
14,309
17,482
20,466
23,253
25,836
28,208
30,363
32,297
34,004
35,482
36,727
37,739
38,516
39,059
39,37
39,45
39,305
38,937
38,353
37,56
36,565
35,378
34,01
32,473
30,778
28,941
26,975
24,895
22,718
20,459
18,133
15,757
13,347
10,917
8,485
6,065
3,673
1,324
-0,966
-3,184
-5,317
-7,35
-9,272
-11,07
-12,735
-14,257
-15,625
-16,833
-17,872
-18,737
-19,423
-19,925
-20,243
-20,374
-20,32
-20,083
-19,665
-19,072
-18,309
-17,383
-16,302
-15,073
-13,705
-12,207
-10,588
-8,856
-7,023
-5,098
-3,089
-1,008
1,136
3,335
5,579
7,86
10,17
12,5
14,844
17,194
19,545
21,891
24,225
26,543
28,84
31,113
33,36
35,579
37,768
39,93
42,064
44,174
46,262
48,331
50,387
52,434
54,475
56,517
58,564
60,622
62,696
64,79
66,91
69,06
71,244
73,467
75,73
78,037
80,389
82,789
85,237
87,733
90,279
92,874
95,518
98,21
100,95
103,737
106,569
109,444
112,359
115,311
118,297
121,312
124,351
127,411
130,487
133,573
136,665
139,757
142,846
145,925
148,992
152,041
155,07
158,074
161,052
164
166,919
169,808
172,667
175,497
178,3
181,079
183,836
186,573
189,294
192,003
194,701
197,393
200,082
202,772
205,468
208,172
210,89
213,625
216,382
219,165
221,978
224,824
227,707
230,631
233,599
236,615
239,681
242,799
245,974
249,206
252,496
255,845
259,253
262,719
266,24
269,814
273,437
277,107
280,82
284,571
288,357
292,174
296,017
299,884
303,77
307,671
311,584
315,504
319,43
323,357
327,285
331,211
335,133
339,05
342,961
346,867
350,766
354,658
358,543
362,421
366,292
370,159
374,024
377,888
381,757
385,635
389,527
393,44
397,38
401,354
405,366
409,425
413,535
417,703
421,935
426,237
430,614
435,072
439,616
444,251
448,981
453,809
458,738
463,769
468,903
474,14
479,48
484,921
490,462
496,102
501,84
507,672
513,594
519,602
525,689
531,847
538,066
544,335
550,641
556,972
563,316
569,66
575,994
582,306
588,587
594,828
601,023
607,16
613,232
619,226
625,13
630,935
636,631
642,207
647,657
652,969
658,138
663,167
668,057
672,809
677,423
681,891
686,216
690,41
694,492
698,48
702,402
706,281
710,156
714,083
718,116
722,305
726,698
731,312
736,167
741,288
746,696
752,411
758,43
764,717
771,232
777,951
784,851
791,906
799,066
806,231
813,314
820,244
826,943
833,368
839,468
845,184
850,471
855,32
859,755
863,848
867,69
871,311
874,729
877,967
881,063
884,12
887,229
890,466
893,943
897,773
902,085
907,01
912,631
918,975
926,054
933,841
942,272
951,347
961,055
971,42
982,543
994,302
1006,415
1018,444
1029,657
1039,345
1046,993
1051,936
1053,419
1051,264
1045,677
1037,35
1027,651
1017,451
1006,908
996,338
985,979
975,089
962,175
944,73
919,307
883,365
835,338
773,522
696,371
603,633
496,612
378,563
254,289
128,214
4,377
-112,603
-217,626
-306,44
-376,628
-428,03
-462,435
-481,881
-488,336
-484,533
-474,109
-460,451
-445,834
-431,063
-415,358
-397,941
-378,783
-357,782
-334,721
-309,883
-283,874
-257,941
-234,46
-215,411
-201,571
-193,255
-189,993
-190,402
-193,352
-197,505
-200,683
-201,183
-198,102
-190,774
-179,477
-165,274
-148,628
-130,145
-111,012
-91,854
-73,141
-55,453
-38,448
-21,186
-3,276
16,223
39,177
66,525
98,973
137,64
179,83
222,129
264,912
305,246
343,949
383,395
413,795
428,889
421,984
385,167
329,307
265,882
204,859
159,231
128,313
109,659
103,459
106,441
118,914
140,291
166,359
193,302
217,237
235,214
246,178
249,9
246,883
238,413
226,18
212,165
197,957
184,446
172,092
160,958
150,829
141,367
132,107
122,508
112,319
101,6
90,487
79,214
68,002
56,971
46,263
36,022
26,288
17,036
8,231
-0,187
-8,228
-15,847
-23,024
-29,761
-36,078
-42,029
-47,652
-52,97
-58,01
-62,797
-67,348
-71,67
-75,756
-79,581
-83,136
-86,42
-89,445
-92,234
-94,811
-97,197
-99,411
-101,469
-103,389
-105,188
-106,883
-108,486
-110,013
-111,479
-112,905
-114,314
-115,725
-117,152
-118,603
-120,088
-121,613
-123,183
-124,8
-126,46
-128,165
-129,915
-131,714
-133,565
-135,465
-137,413
-139,399
-141,416
-143,455
-145,5
-147,535
-149,536
-151,483
-153,36
-155,161
-156,879
-158,498
-159,989
-161,313
-162,436
-163,328
-163,953
-164,273
-164,239
-163,82
-163,005
-161,811
-160,26
-158,361
-156,105
-153,462
-150,401
-146,909
-142,99
-138,663
-133,941
-128,839
-123,399
-117,7
-111,843
-105,899
-99,897
-93,806
-87,595
-81,268
-74,849
-68,397
-61,97
-55,607
-49,352
-43,248
-37,34
-31,649
-26,137
-20,697
-15,198
-9,553
-3,74
2,199
8,24
14,423
20,792
27,417
34,328
41,555
49,208
57,298
65,708
74,18
82,237
89,355
95,147
99,308
101,549
102
101,109
99,447
97,859
97,039
97,25
98,455
100,369
101,893
101,195
96,299
85,061
65,542
36,429
-3,063
-53,362
-113,673
-181,872
-255,413
-331,337
-406,367
-477,515
-542,154
-597,75
-642,938
-677,745
-702,739
-719,197
-729,132
-734,699
-737,896
-740,73
-744,485
-749,574
-756,092
-763,655
-771,375
-778,214
-783,372
-786,265
-786,689
-784,879
-781,187
-776,053
-770,08
-763,903
-757,939
-752,426
-747,448
-742,905
-738,696
-734,742
-730,894
-727,067
-723,195
-719,149
-714,906
-710,143
-704,537
-698,23
-691,095
-684,018
-677,756
-671,675
-665,713
-656,518
-644,763
-628,623
-590,297
-565,757
-616,972
-662,36
-599,801
-522,342
-524,19
-545,088
-539,184
-528,134
-519,021
-508,25
-498,281
-489,521
-481,951
-475,238
-468,697
-462,448
-456,523
-450,89
-445,624
-440,718
-436,165
-431,978
-428,151
-424,654
-421,489
-418,667
-416,225
-414,216
-412,639
-411,445
-410,571
-409,945
-409,544
-409,39
-409,414
-409,428
-409,313
-409,022
-408,739
-408,912
-409,711
-410,947
-412,317
-413,5
-414,259
-414,356
-412,967
-408,521
-399,831
-386,544
-369,18
-349,031
-327,322
-305,267
-284,825
-268,984
-260,678
-261,776
-272,422
-290,884
-314,776
-341,353
-367,439
-389,196
-402,382
-403,646
-391,514
-366,666
-331,52
-290,019
-245,729
-202,011
-163,662
-132,043
-107,199
-92,444
-86,533
-92,733
-118,285
-154,12
-190,556
-214,037
-203,349
-165,631
-119,171
-80,649
-74,089
-96,816
-129,132
-158,8
-171,1
-165,269
-154,358
-144,148
-138,699
-139,359
-141,333
-142,964
-144,874
-146,794
-149,368
-152,977
-157,169
-161,848
-167,172
-173,031
-179,256
-185,812
-192,669
-199,798
-207,188
-214,691
-222,009
-228,853
-234,966
-240,149
-244,287
-247,285
-249,013
-249,308
-248,01
-245,025
-240,318
-233,891
-225,697
-215,61
-203,655
-190,126
-175,577
-160,621
-145,613
-130,523
-115,207
-99,772
-84,315
-68,652
-52,172
-34,111
-14,286
6,546
27,111
46,609
64,62
80,446
92,851
100,279
101,751
97,862
90,364
80,335
68,238
54,946
41,969
31,67
26,279
25,75
28,192
32,268
37,006
41,169
43,098
39,611
27,299
5,739
-23,219
-57,467
-93,914
-129,81
-162,806
-188,149
-203,143
-207,984
-201,279
-184,94
-158,324
-119,515
-77,717
-41,056
-20,163
-25,955
-50,782
-86,339
-124,536
-154,494
-179,236
-201,69
-220,45
-237,189
-249,414
-255,227
-256,984
-256,377
-254,665
-253,157
-252,285
-252,2
-253,277
-255,541
-258,389
-261,141
-263,504
-265,388
-266,863
-268,123
-269,17
-269,948
-270,544
-271,053
-271,522
-271,971
-272,345
-272,551
-272,551
-272,344
-271,932
-271,332
-270,546
-269,558
-268,357
-266,943
-265,322
-263,51
-261,523
-259,377
-257,083
-254,658
-252,119
-249,484
-246,766
-243,969
-241,095
-238,141
-235,108
-232,003
-228,834
-225,61
-222,34
-219,032
-215,695
-212,338
-208,971
-205,601
-202,237
-198,885
-195,55
-192,241
-188,967
-185,736
-182,558
-179,441
-176,394
-173,426
-170,545
-167,761
-165,079
-162,504
-160,04
-157,689
-155,453
-153,332
-151,324
-149,425
-147,638
-145,961
-144,396
-142,944
-141,605
-140,376
-139,255
-138,236
-137,314
-136,476
-135,704
-134,984
-134,303
-133,658
-133,054
-132,491
-131,957
-131,443
-130,935
-130,408
-129,831
-129,152
-128,292
-127,184
-125,783
-124,056
-122,002
-119,622
-116,907
-113,853
-110,447
-106,677
-102,552
-98,069
-93,208
-87,99
-82,474
-76,772
-71,085
-65,582
-60,374
-55,552
-51,151
-47,169
-43,619
-40,469
-37,649
-35,113
-32,823
-30,765
-28,954
-27,293
-25,57
-23,494
-20,633
-16,618
-11,18
-4,031
4,831
15,094
26,41
38,252
50,066
61,815
73,513
85,057
97,629
113,148
132,911
158,723
190,104
222,965
256,774
292,687
331,737
378,648
428,599
467,356
484,035
468,013
418,475
348,304
267,31
181,984
101,299
31,491
-19,123
-37,716
-24,439
9,095
50,53
83,99
103,451
114,865
121,849
127,756
133,271
134,582
131,177
124,906
117,657
111,623
107,689
105,69
105,515
106,987
109,659
112,82
115,673
117,784
119,074
119,63
119,608
119,092
118,16
117,039
116,009
115,22
114,726
114,499
114,468
114,627
115,009
115,632
116,492
117,573
118,852
120,322
121,986
123,829
125,812
127,873
129,941
131,972
133,942
135,842
137,662
139,392
141,021
142,547
143,979
145,323
146,581
147,752
148,832
149,825
150,742
151,596
152,405
153,182
153,938
154,685
155,435
156,198
156,984
157,796
158,637
159,514
160,433
161,399
162,422
163,508
164,664
165,896
167,211
168,613
170,105
171,69
173,368
175,139
177,001
178,953
180,992
183,114
185,316
187,594
189,942
192,354
194,824
197,344
199,908
202,506
205,132
207,776
210,429
213,084
215,733
218,368
220,982
223,568
226,118
228,628
231,089
233,497
235,845
238,127
240,339
242,476
244,533
246,508
248,397
250,198
251,91
253,53
255,06
256,497
257,842
259,094
260,254
261,323
262,3
263,188
263,987
264,697
265,321
265,858
266,31
266,677
266,96
267,157
267,269
267,294
267,233
267,084
266,845
266,515
266,094
265,579
264,969
264,263
263,459
262,556
261,553
260,447
259,237
257,922
256,502
254,974
253,34
251,597
249,747
247,789
245,724
243,552
241,275
238,894
236,41
233,826
231,143
228,365
225,496
222,539
219,5
216,384
213,197
209,944
206,631
203,266
199,856
196,406
192,925
189,419
185,897
182,366
178,834
175,308
171,797
168,309
164,85
161,427
158,049
154,722
151,453
148,249
145,116
142,06
139,089
136,208
133,423
130,741
128,165
125,702
123,355
121,127
119,023
117,045
115,194
113,474
111,885
110,428
109,104
107,913
106,854
105,927
105,129
104,46
103,915
103,494
103,193
103,008
102,936
102,974
103,117
103,361
103,702
104,135
104,654
105,254
105,928
106,67
107,474
108,333
109,239
110,186
111,167
112,176
113,206
114,249
115,3
116,352
117,399
118,435
119,455
120,452
121,422
122,361
123,264
124,128
124,949
125,724
126,451
127,126
127,747
128,312
128,818
129,265
129,651
129,975
130,236
130,435
130,572
130,648
130,663
130,619
130,518
130,362
130,151
129,889
129,577
129,218
128,813
128,366
127,879
127,353
126,79
126,193
125,563
124,9
124,207
123,483
122,73
121,947
121,136
120,297
119,431
118,537
117,617
116,67
115,698
114,701
113,678
112,63
111,557
110,459
109,336
108,188
107,015
105,817
104,595
103,349
102,079
100,785
99,468
98,129
96,768
95,387
93,988
92,571
91,138
89,693
88,238
86,775
85,308
83,839
82,371
80,909
79,453
78,008
76,575
75,158
73,759
72,379
71,021
69,687
68,377
67,094
65,838
64,609
63,409
62,236
61,091
59,973
58,882
57,815
56,771
55,749
54,748
53,763
52,794
51,836
50,887
49,943
49,001
48,057
47,106
46,145
45,17
44,177
43,162
42,122
41,053
39,954
38,821
37,653
36,447
35,203
33,92
32,598
31,237
29,837
28,401
26,929
25,425
23,89
22,329
20,743
19,138
17,516
15,882
14,241
12,597
10,955
9,319
7,695
6,088
4,502
2,943
1,415
-0,077
-1,528
-2,936
-4,295
-5,604
-6,858
-8,057
-9,197
-10,279
-11,302
-12,265
-13,169
-14,015
-14,804
-15,538
-16,22
-16,852
-17,436
-17,976
-18,476
-18,938
-19,366
-19,764
-20,135
-20,482
-20,809
-21,117
-21,411
-21,691
-21,961
-22,221
-22,474
-22,721
-22,963
-23,2
-23,432
-23,657
-23,875
-24,084
-24,279
-24,459
-24,619
-24,754
-24,861
-24,935
-24,97
-24,963
-24,907
-24,799
-24,634
-24,406
-24,112
-23,746
-23,308
-22,791
-22,194
-21,511
-20,72
-19,87
-18,984
-18,043
-17,116
-15,95
-14,342
-12,533
-10,455
-9,051
-9,089
-9,893
-11,368
-10,075
-6,612
0,922
30,511
46,013
-14,897
-70,036
-16,543
51,99
40,822
10,669
7,734
10,265
11,156
14,026
16,394
17,827
18,323
18,205
18,147
18,005
17,729
17,327
16,719
15,921
14,943
13,775
12,418
10,873
9,145
7,24
5,163
2,925
0,54
-1,98
-4,623
-7,374
-10,22
-13,147
-16,138
-19,18
-22,262
-25,371
-28,497
-31,627
-34,744
-37,833
-40,88
-43,867
-46,778
-49,59
-52,277
-54,82
-57,205
-59,419
-61,449
-63,272
-64,852
-66,158
-67,163
-67,841
-68,171
-68,14
-67,74
-66,987
-65,922
-64,598
-63,079
-61,417
-59,636
-57,748
-55,768
-53,713
-51,623
-49,554
-47,53
-45,583
-43,748
-42,006
-40,324
-38,651
-36,834
-34,67
-32,025
-28,828
-25,177
-21,422
-17,902
-14,885
-12,669
-11,365
-10,739
-10,314
-9,118
-5,674
1,249
12,642
29,317
51,035
76,634
104,589
131,905
154,643
170,006
175,025
168,738
154,163
131,635
100,474
59,114
1,985
-65,998
-131,273
-179,846
-194,921
-176,437
-139,708
-98,693
-69,178
-55,078
-47,974
-43,993
-39,963
-35,366
-34,394
-37,248
-41,802
-47,078
-51,63
-54,619
-56,397
-56,973
-56,283
-55,022
-54,005
-53,602
-53,97
-55,028
-56,459
-58,099
-59,875
-61,597
-63,079
-64,216
-64,961
-65,356
-65,485
-65,394
-65,086
-64,527
-63,684
-62,541
-61,094
-59,371
-57,405
-55,24
-52,933
-50,539
-48,091
-45,617
-43,129
-40,622
-38,09
-35,527
-32,924
-30,289
-27,638
-24,984
-22,343
-19,726
-17,137
-14,58
-12,055
-9,557
-7,085
-4,637
-2,214
0,179
2,537
4,852
7,115
9,318
11,455
13,523
15,519
17,444
19,295
21,073
22,78
24,417
25,986
27,488
28,922
30,292
31,597
32,841
34,028
35,16
36,242
37,28
38,278
39,242
40,178
41,091
41,986
42,869
43,742
44,611
45,48
46,353
47,235
48,13
49,044
49,982
50,948
51,947
52,982
54,056
55,171
56,33
57,531
58,776
60,063
61,391
62,759
64,164
65,602
67,071
68,565
70,079
71,608
73,145
74,683
76,215
77,733
79,231
80,701
82,135
83,527
84,867
86,149
87,363
88,503
89,56
90,525
91,389
92,143
92,781
93,293
93,672
93,911
94,003
93,943
93,725
93,347
92,803
92,092
91,212
90,162
88,944
87,558
86,006
84,292
82,418
80,389
78,211
75,887
73,423
70,826
68,101
65,256
62,296
59,231
56,067
52,813
49,478
46,069
42,598
39,074
35,506
31,906
28,282
24,647
21,009
17,378
13,765
10,179
6,627
3,119
-0,339
-3,739
-7,076
-10,344
-13,539
-16,655
-19,69
-22,639
-25,501
-28,272
-30,95
-33,534
-36,021
-38,411
-40,703
-42,897
-44,991
-46,986
-48,884
-50,684
-52,39
-54,003
-55,526
-56,962
-58,316
-59,591
-60,792
-61,925
-62,994
-64,004
-64,96
-65,869
-66,734
-67,561
-68,354
-69,118
-69,858
-70,578
-71,281
-71,972
-72,655
-73,333
-74,011
-74,691
-75,379
-76,078
-76,79
-77,52
-78,272
-79,047
-79,85
-80,683
-81,548
-82,447
-83,381
-84,352
-85,359
-86,402
-87,482
-88,596
-89,743
-90,922
-92,13
-93,365
-94,625
-95,906
-97,207
-98,525
-99,857
-101,201
-102,553
-103,912
-105,274
-106,637
-107,997
-109,353
-110,701
-112,039
-113,363
-114,671
-115,96
-117,227
-118,47
-119,685
-120,871
-122,026
-123,148
-124,235
-125,286
-126,301
-127,279
-128,221
-129,126
-129,996
-130,831
-131,633
-132,403
-133,141
-133,85
-134,529
-135,18
-135,803
-136,399
-136,969
-137,512
-138,03
-138,521
-138,985
-139,423
-139,833
-140,216
-140,569
-140,892
-141,185
-141,446
-141,673
-141,867
-142,024
-142,145
-142,227
-142,268
-142,267
-142,221
-142,127
-141,983
-141,787
-141,536
-141,227
-140,858
-140,427
-139,933
-139,375
-138,751
-138,062
-137,307
-136,488
-135,605
-134,661
-133,658
-132,598
-131,486
-130,325
-129,12
-127,876
-126,596
-125,287
-123,954
-122,602
-121,237
-119,865
-118,491
-117,12
-115,76
-114,416
-113,093
-111,799
-110,539
-109,319
-108,144
-107,021
-105,954
-104,947
-104,005
-103,131
-102,328
-101,599
-100,945
-100,366
-99,862
-99,433
-99,077
-98,79
-98,569
-98,411
-98,311
-98,264
-98,263
-98,305
-98,381
-98,486
-98,615
-98,76
-98,915
-99,073
-99,228
-99,374
-99,504
-99,612
-99,692
-99,737
-99,742
-99,702
-99,61
-99,461
-99,251
-98,975
-98,629
-98,21
-97,715
-97,141
-96,487
-95,754
-94,941
-94,049
-93,081
-92,037
-90,92
-89,734
-88,482
-87,166
-85,791
-84,36
-82,877
-81,347
-79,771
-78,155
-76,502
-74,815
-73,095
-71,346
-69,571
-67,772
-65,951
-64,111
-62,254
-60,384
-58,505
-56,618
-54,727
-52,834
-50,941
-49,051
-47,165
-45,283
-43,406
-41,534
-39,667
-37,807
-35,953
-34,108
-32,27
-30,442
-28,623
-26,814
-25,017
-23,232
-21,46
-19,703
-17,964
-16,246
-14,554
-12,893
-11,268
-9,684
-8,146
-6,66
-5,229
-3,857
-2,548
-1,305
-0,132
0,968
1,989
2,926
3,773
4,524
5,172
5,71
6,133
6,439
6,624
6,687
6,629
6,453
6,161
5,756
5,24
4,61
3,866
3,008
2,036
0,953
-0,24
-1,543
-2,948
-4,442
-6,012
-7,648
-9,349
-11,126
-12,981
-14,908
-16,895
-18,926
-20,98
-23,03
-25,03
-26,91
-28,597
-30,022
-31,144
-31,957
-32,455
-32,626
-32,457
-31,916
-31
-29,747
-28,182
-26,324
-24,211
-21,889
-19,473
-17,159
-15,129
-13,542
-12,505
-12,046
-12,18
-12,933
-14,3
-16,269
-18,779
-21,682
-24,854
-28,199
-31,548
-34,701
-37,368
-39,087
-39,408
-38,046
-34,822
-29,79
-23,217
-15,29
-6,215
3,667
14,129
25,175
37,091
50,743
67,37
87,854
112,822
142,642
176,791
214,216
253,427
291,317
323,846
347,842
359,975
359,248
348,732
328,257
296,448
251,362
186,587
107,197
28,365
-35,172
-65,276
-60
-35,018
-4,268
16,766
22,914
22,863
21,388
21,624
24,16
24,509
21,551
16,81
11,62
7,603
5,42
4,82
5,703
8,053
11,54
15,52
19,246
22,305
24,578
26,102
27,005
27,272
26,889
26,01
24,855
23,631
22,515
21,565
20,756
20,107
19,652
19,428
19,496
19,86
20,491
21,379
22,517
23,909
25,564
27,451
29,508
31,67
33,868
36,056
38,212
40,307
42,319
44,226
46,008
47,664
49,206
50,635
51,95
53,147
54,216
55,162
55,997
56,732
57,381
57,956
58,467
58,924
59,342
59,728
60,091
60,435
60,762
61,077
61,388
61,702
62,027
62,371
62,742
63,149
63,598
64,098
64,655
65,273
65,956
66,709
67,533
68,432
69,407
70,459
71,589
72,797
74,081
75,439
76,868
78,366
79,926
81,545
83,215
84,93
86,683
88,466
90,274
92,099
93,934
95,771
97,606
99,43
101,238
103,024
104,782
106,506
108,191
109,832
111,425
112,966
114,452
115,88
117,248
118,554
119,796
120,973
122,084
123,127
124,103
125,01
125,85
126,621
127,325
127,962
128,532
129,038
129,478
129,855
130,169
130,419
130,607
130,731
130,792
130,787
130,716
130,578
130,37
130,089
129,735
129,304
128,792
128,198
127,519
126,75
125,889
124,934
123,881
122,729
121,476
120,12
118,66
117,095
115,426
113,653
111,776
109,798
107,719
105,542
103,271
100,909
98,46
95,93
93,324
90,649
87,911
85,119
82,279
79,401
76,494
73,568
70,631
67,696
64,771
61,868
58,996
56,167
53,39
50,675
48,031
45,468
42,993
40,615
38,34
36,175
34,126
32,197
30,391
28,713
27,165
25,747
24,461
23,306
22,281
21,384
20,613
19,963
19,43
19,009
18,694
18,478
18,355
18,316
18,352
18,456
18,617
18,827
19,077
19,356
19,655
19,966
20,278
20,583
20,872
21,137
21,371
21,565
21,714
21,812
21,852
21,83
21,741
21,583
21,352
21,045
20,662
20,2
19,66
19,041
18,345
17,574
16,729
15,814
14,832
13,788
12,685
11,529
10,325
9,079
7,796
6,482
5,145
3,79
2,423
1,051
-0,319
-1,682
-3,032
-4,363
-5,669
-6,946
-8,188
-9,392
-10,552
-11,665
-12,729
-13,738
-14,692
-15,587
-16,422
-17,196
-17,907
-18,557
-19,146
-19,674
-20,143
-20,556
-20,915
-21,222
-21,482
-21,699
-21,876
-22,018
-22,13
-22,217
-22,285
-22,338
-22,383
-22,425
-22,469
-22,52
-22,585
-22,667
-22,772
-22,904
-23,069
-23,27
-23,511
-23,797
-24,131
-24,516
-24,955
-25,449
-26
-26,61
-27,279
-28,007
-28,794
-29,638
-30,538
-31,491
-32,496
-33,55
-34,648
-35,788
-36,964
-38,173
-39,409
-40,668
-41,945
-43,235
-44,533
-45,834
-47,134
-48,427
-49,709
-50,976
-52,224
-53,448
-54,645
-55,811
-56,943
-58,038
-59,093
-60,107
-61,078
-62,004
-62,885
-63,721
-64,512
-65,258
-65,961
-66,621
-67,241
-67,823
-68,369
-68,882
-69,364
-69,82
-70,253
-70,664
-71,059
-71,44
-71,809
-72,171
-72,527
-72,88
-73,231
-73,584
-73,94
-74,3
-74,666
-75,038
-75,416
-75,802
-76,196
-76,596
-77,002
-77,414
-77,83
-78,247
-78,665
-79,08
-79,491
-79,894
-80,286
-80,664
-81,025
-81,366
-81,683
-81,972
-82,23
-82,455
-82,642
-82,789
-82,893
-82,951
-82,963
-82,925
-82,836
-82,696
-82,503
-82,258
-81,96
-81,608
-81,205
-80,75
-80,244
-79,689
-79,086
-78,437
-77,744
-77,009
-76,236
-75,426
-74,583
-73,709
-72,809
-71,885
-70,939
-69,976
-68,998
-68,008
-67,009
-66,004
-64,994
-63,984
-62,974
-61,966
-60,962
-59,963
-58,97
-57,982
-57
-56,023
-55,05
-54,08
-53,113
-52,146
-51,179
-50,209
-49,236
-48,256
-47,267
-46,268
-45,254
-44,222
-43,171
-42,096
-40,996
-39,868
-38,709
-37,517
-36,291
-35,028
-33,727
-32,386
-31,003
-29,577
-28,106
-26,59
-25,028
-23,421
-21,771
-20,08
-18,349
-16,582
-14,782
-12,953
-11,099
-9,222
-7,328
-5,421
-3,504
-1,584
0,334
2,244
4,138
6,009
7,849
9,651
11,407
13,112
14,756
16,334
17,838
19,26
20,593
21,829
22,958
23,968
24,849
25,591
26,186
26,625
26,903
27,014
26,955
26,727
26,329
25,762
25,025
24,116
23,029
21,76
20,305
18,662
16,832
14,818
12,623
10,256
7,728
5,047
2,22
-0,759
-3,892
-7,177
-10,606
-14,168
-17,834
-21,57
-25,34
-29,087
-32,762
-36,321
-39,719
-42,932
-45,945
-48,749
-51,328
-53,663
-55,73
-57,517
-59,035
-60,291
-61,322
-62,185
-62,935
-63,682
-64,51
-65,465
-66,63
-68,063
-69,808
-71,924
-74,424
-77,244
-80,378
-83,865
-87,603
-91,451
-95,037
-97,728
-99,136
-99,108
-97,557
-94,447
-89,742
-83,528
-76,526
-70,144
-65,383
-62,525
-61,194
-60,576
-60,135
-59,157
-55,977
-47,858
-32,072
-7,105
26,983
69,079
117,968
171,776
227,37
280,097
324,194
354,951
369,575
366,518
345,287
306,854
253,74
190,408
123,329
58,6
0,89
-45,919
-79,362
-98,583
-104,063
-98,033
-84,496
-67,487
-50,105
-35,027
-23,998
-17,802
-16,57
-19,476
-24,752
-30,524
-35,619
-39,262
-41,072
-41,041
-39,247
-36,016
-32,07
-28,257
-25,081
-22,773
-21,374
-20,749
-20,852
-21,653
-22,988
-24,616
-26,317
-27,9
-29,298
-30,547
-31,583
-32,345
-32,814
-32,857
-32,736
-32,7
-32,507
-32,24
-30,898
-27,66
-23,283
-17,942
-15,382
-15,045
-19,021
-46,527
-59,048
9,867
72,515
19,134
-50,448
-35,163
0,209
6,364
6,489
8,143
7,456
7,075
7,46
8,62
10,213
11,52
12,698
13,81
14,847
15,897
16,941
17,962
18,972
19,976
20,976
21,978
22,987
24,009
25,048
26,111
27,202
28,324
29,478
30,667
31,89
33,149
34,445
35,777
37,147
38,555
40
41,483
43,002
44,557
46,145
47,764
49,413
51,088
52,786
54,503
56,238
57,987
59,747
61,516
63,291
65,067
66,842
68,61
70,369
72,114
73,839
75,542
77,218
78,862
80,473
82,046
83,58
85,069
86,512
87,906
89,248
90,533
91,76
92,924
94,022
95,051
96,008
96,889
97,692
98,411
99,045
99,588
100,037
100,388
100,638
100,781
100,815
100,737
100,543
100,232
99,802
99,251
98,578
97,781
96,861
95,818
94,65
93,358
91,943
90,406
88,748
86,971
85,077
83,07
80,951
78,725
76,395
73,966
71,442
68,829
66,131
63,357
60,512
57,605
54,643
51,635
48,589
45,514
42,419
39,312
36,202
33,098
30,007
26,936
23,895
20,889
17,925
15,011
12,153
9,357
6,629
3,975
1,398
-1,094
-3,499
-5,811
-8,027
-10,143
-12,155
-14,061
-15,858
-17,544
-19,118
-20,578
-21,926
-23,162
-24,286
-25,302
-26,21
-27,014
-27,716
-28,321
-28,83
-29,248
-29,578
-29,823
-29,987
-30,074
-30,086
-30,027
-29,902
-29,713
-29,464
-29,16
-28,804
-28,401
-27,954
-27,468
-26,949
-26,4
-25,826
-25,233
-24,625
-24,008
-23,387
-22,765
-22,147
-21,537
-20,939
-20,356
-19,79
-19,244
-18,721
-18,223
-17,751
-17,309
-16,898
-16,52
-16,177
-15,87
-15,601
-15,372
-15,184
-15,037
-14,933
-14,871
-14,853
-14,877
-14,944
-15,051
-15,199
-15,384
-15,604
-15,858
-16,141
-16,451
-16,784
-17,136
-17,504
-17,884
-18,274
-18,671
-19,071
-19,471
-19,87
-20,264
-20,651
-21,029
-21,395
-21,747
-22,083
-22,4
-22,698
-22,975
-23,228
-23,459
-23,665
-23,846
-24,003
-24,134
-24,242
-24,326
-24,389
-24,431
-24,456
-24,466
-24,464
-24,453
-24,438
-24,422
-24,407
-24,399
-24,399
-24,411
-24,438
-24,482
-24,547
-24,635
-24,748
-24,889
-25,059
-25,261
-25,495
-25,764
-26,068
-26,407
-26,781
-27,191
-27,636
-28,115
-28,628
-29,173
-29,749
-30,354
-30,985
-31,64
-32,315
-33,008
-33,714
-34,429
-35,151
-35,874
-36,596
-37,314
-38,024
-38,722
-39,407
-40,075
-40,725
-41,352
-41,956
-42,534
-43,085
-43,607
-44,1
-44,563
-44,996
-45,398
-45,772
-46,118
-46,435
-46,727
-46,995
-47,239
-47,463
-47,668
-47,858
-48,036
-48,204
-48,366
-48,526
-48,685
-48,848
-49,016
-49,192
-49,379
-49,577
-49,789
-50,015
-50,259
-50,519
-50,799
-51,097
-51,414
-51,75
-52,105
-52,478
-52,868
-53,272
-53,69
-54,119
-54,557
-55,002
-55,452
-55,903
-56,353
-56,799
-57,238
-57,666
-58,079
-58,475
-58,85
-59,202
-59,528
-59,826
-60,095
-60,334
-60,541
-60,717
-60,861
-60,973
-61,054
-61,103
-61,122
-61,112
-61,073
-61,008
-60,918
-60,806
-60,672
-60,52
-60,352
-60,169
-59,974
-59,77
-59,558
-59,34
-59,12
-58,898
-58,678
-58,46
-58,247
-58,038
-57,835
-57,638
-57,447
-57,259
-57,072
-56,886
-56,695
-56,498
-56,289
-56,065
-55,821
-55,552
-55,254
-54,923
-54,553
-54,139
-53,678
-53,165
-52,596
-51,967
-51,274
-50,515
-49,685
-48,783
-47,805
-46,751
-45,618
-44,407
-43,116
-41,748
-40,303
-38,785
-37,195
-35,538
-33,819
-32,043
-30,217
-28,348
-26,446
-24,52
-22,583
-20,645
-18,718
-16,814
-14,947
-13,127
-11,367
-9,677
-8,069
-6,553
-5,139
-3,838
-2,659
-1,61
-0,703
0,053
0,648
1,073
1,322
1,388
1,268
0,958
0,459
-0,227
-1,096
-2,142
-3,359
-4,744
-6,294
-8,003
-9,862
-11,856
-13,973
-16,197
-18,511
-20,895
-23,325
-25,777
-28,236
-30,697
-33,164
-35,642
-38,129
-40,608
-43,061
-45,466
-47,792
-50,002
-52,049
-53,88
-55,455
-56,757
-57,783
-58,547
-59,048
-59,264
-59,156
-58,678
-57,8
-56,524
-54,862
-52,83
-50,467
-47,825
-44,995
-42,137
-39,394
-36,874
-34,636
-32,636
-30,845
-29,353
-28,194
-27,281
-26,421
-25,155
-23,009
-19,916
-15,876
-10,741
-4,656
2,109
9,074
14,888
18,086
18,152
15,028
9,066
1,614
-5,73
-11,186
-11,785
-3,999
14,625
45,127
87,37
137,589
189,416
239,533
284,634
324,032
362,628
396,806
418,315
416,655
375,131
291,252
174,803
44,922
-67,948
-144,397
-175,344
-165,202
-133,941
-96,782
-66,102
-46,397
-30,991
-16,976
-2,801
11,309
20,62
23,872
22,525
18,08
13,344
10,109
8,495
8,708
10,738
13,988
17,9
21,85
25,044
27,409
29,136
30,073
30,139
28,331
24,314
18,988
13,897
13,678
16,949
25,594
54,173
65,791
-6,738
-99,499
-61,688
84,422
140,868
46,718
-36,9
-18,305
21,734
31,14
33,517
36,958
37,064
37,144
38,409
40,694
43,539
46,14
48,59
50,965
53,261
55,554
57,816
60,033
62,222
64,387
66,533
68,661
70,774
72,874
74,96
77,031
79,083
81,111
83,108
85,071
86,999
88,89
90,745
92,565
94,351
96,103
97,824
99,514
101,174
102,802
104,399
105,964
107,498
109,004
110,483
111,937
113,371
114,787
116,19
117,583
118,969
120,353
121,738
123,127
124,522
125,93
127,353
128,798
130,291
131,78
133,224
134,693
136,147
137,824
140
142,177
144,221
145,42
144,93
144,393
144,688
148,62
155,485
163,73
192,195
202,3
112,604
43,083
161,22
288,796
225,464
127,653
138,243
173,623
179,75
182,328
186,035
186,75
186,972
187,452
188,866
190,727
192,286
193,686
194,888
195,887
196,764
197,482
198,018
198,372
198,536
198,499
198,252
197,788
197,1
196,182
195,03
193,638
192,005
190,128
188,007
185,643
183,036
180,191
177,112
173,805
170,277
166,537
162,595
158,461
154,148
149,669
145,036
140,264
135,368
130,362
125,261
120,082
114,84
109,552
104,233
98,901
93,571
88,261
82,985
77,759
72,598
67,517
62,528
57,645
52,88
48,243
43,744
39,392
35,194
31,157
27,284
23,579
20,043
16,677
13,48
10,448
7,58
4,87
2,314
-0,096
-2,365
-4,501
-6,513
-8,408
-10,196
-11,885
-13,485
-15,006
-16,456
-17,845
-19,183
-20,479
-21,742
-22,98
-24,202
-25,416
-26,63
-27,85
-29,083
-30,333
-31,606
-32,905
-34,233
-35,591
-36,981
-38,403
-39,855
-41,337
-42,845
-44,378
-45,93
-47,499
-49,08
-50,668
-52,257
-53,844
-55,422
-56,988
-58,536
-60,062
-61,562
-63,031
-64,466
-65,863
-67,219
-68,531
-69,796
-71,011
-72,176
-73,289
-74,349
-75,356
-76,31
-77,212
-78,064
-78,867
-79,624
-80,337
-81,009
-81,644
-82,246
-82,819
-83,369
-83,899
-84,416
-84,923
-85,426
-85,93
-86,439
-86,956
-87,485
-88,029
-88,591
-89,173
-89,776
-90,402
-91,052
-91,727
-92,426
-93,148
-93,893
-94,659
-95,444
-96,246
-97,061
-97,886
-98,719
-99,557
-100,394
-101,228
-102,055
-102,871
-103,67
-104,45
-105,205
-105,93
-106,622
-107,275
-107,887
-108,453
-108,971
-109,438
-109,851
-110,21
-110,513
-110,76
-110,95
-111,085
-111,164
-111,191
-111,166
-111,093
-110,976
-110,818
-110,622
-110,395
-110,139
-109,861
-109,564
-109,254
-108,935
-108,612
-108,289
-107,972
-107,664
-107,371
-107,095
-106,842
-106,615
-106,417
-106,251
-106,12
-106,025
-105,969
-105,951
-105,972
-106,033
-106,131
-106,266
-106,436
-106,638
-106,869
-107,125
-107,402
-107,696
-108,001
-108,312
-108,623
-108,93
-109,225
-109,503
-109,759
-109,988
-110,184
-110,342
-110,459
-110,529
-110,549
-110,515
-110,425
-110,276
-110,065
-109,791
-109,452
-109,048
-108,579
-108,044
-107,445
-106,784
-106,062
-105,283
-104,448
-103,562
-102,629
-101,652
-100,637
-99,589
-98,511
-97,411
-96,292
-95,161
-94,023
-92,882
-91,744
-90,614
-89,494
-88,388
-87,3
-86,231
-85,184
-84,159
-83,158
-82,18
-81,226
-80,295
-79,386
-78,498
-77,628
-76,773
-75,93
-75,095
-74,263
-73,43
-72,59
-71,739
-70,869
-69,977
-69,056
-68,101
-67,107
-66,067
-64,977
-63,831
-62,625
-61,356
-60,018
-58,611
-57,131
-55,578
-53,952
-52,253
-50,483
-48,643
-46,736
-44,766
-42,736
-40,65
-38,513
-36,332
-34,112
-31,861
-29,588
-27,301
-25,012
-22,732
-20,472
-18,244
-16,061
-13,934
-11,874
-9,896
-8,009
-6,225
-4,555
-3,011
-1,602
-0,34
0,767
1,708
2,476
3,064
3,468
3,68
3,698
3,521
3,146
2,574
1,805
0,836
-0,33
-1,691
-3,24
-4,968
-6,863
-8,911
-11,095
-13,395
-15,791
-18,263
-20,794
-23,37
-25,978
-28,609
-31,251
-33,89
-36,514
-39,112
-41,675
-44,199
-46,68
-49,111
-51,483
-53,783
-55,995
-58,1
-60,075
-61,884
-63,488
-64,833
-65,871
-66,564
-66,872
-66,759
-66,176
-65,045
-63,304
-60,929
-57,935
-54,396
-50,4
-45,992
-41,259
-36,352
-31,345
-26,254
-20,957
-15,134
-8,479
-0,831
7,842
17,448
27,56
37,519
46,374
52,801
55,544
53,628
46,725
35,157
20,027
3,238
-12,732
-24,794
-29,725
-24,652
-7,945
20,839
60,967
110,066
164,729
220,466
271,934
313,929
342,52
355
349,878
327,731
290,545
241,901
187,009
131,366
79,839
36,468
4,368
-14,952
-21,313
-16,108
-2,343
16,457
36,777
55,688
70,864
80,752
84,681
82,925
76,648
67,46
57,123
46,901
37,67
30,064
24,297
20,322
17,867
16,407
15,341
14,355
13,335
12,254
11,221
10,302
9,536
9,04
8,939
9,297
10,117
11,346
12,898
14,721
16,789
19,072
21,541
24,151
26,853
29,614
32,407
35,21
38,002
40,76
43,458
46,076
48,6
51,018
53,319
55,49
57,514
59,375
61,058
62,554
63,854
64,95
65,837
66,506
66,951
67,171
67,162
66,926
66,463
65,778
64,875
63,765
62,457
60,962
59,295
57,468
55,494
53,389
51,167
48,842
46,432
43,952
41,417
38,845
36,253
33,656
31,071
28,515
26,002
23,549
21,17
18,881
16,694
14,624
12,682
10,881
9,231
7,741
6,418
5,271
4,304
3,522
2,927
2,522
2,306
2,28
2,443
2,792
3,324
4,034
4,919
5,972
7,187
8,556
10,07
11,721
13,5
15,394
17,395
19,489
21,665
23,91
26,211
28,554
30,927
33,315
35,706
38,085
40,44
42,758
45,027
47,236
49,372
51,426
53,387
55,246
56,993
58,62
60,12
61,484
62,708
63,783
64,706
65,472
66,078
66,52
66,797
66,907
66,851
66,629
66,242
65,694
64,987
64,127
63,117
61,965
60,677
59,26
57,721
56,069
54,312
52,459
50,518
48,498
46,408
44,258
42,057
39,813
37,536
35,235
32,919
30,597
28,279
25,973
23,687
21,432
19,215
17,043
14,925
12,869
10,88
8,965
7,128
5,376
3,712
2,139
0,661
-0,721
-2,005
-3,19
-4,276
-5,262
-6,149
-6,937
-7,628
-8,222
-8,722
-9,129
-9,444
-9,671
-9,81
-9,866
-9,84
-9,736
-9,557
-9,308
-8,992
-8,614
-8,18
-7,693
-7,16
-6,584
-5,972
-5,327
-4,656
-3,961
-3,249
-2,523
-1,786
-1,042
-0,295
0,452
1,197
1,937
2,67
3,393
4,104
4,801
5,482
6,144
6,785
7,403
7,995
8,558
9,092
9,593
10,06
10,491
10,887
11,245
11,566
11,849
12,094
12,303
12,474
12,61
12,711
12,777
12,81
12,81
12,777
12,714
12,619
12,494
12,339
12,153
11,938
11,694
11,422
11,121
10,793
10,439
10,061
9,66
9,238
8,798
8,341
7,872
7,392
6,905
6,413
5,919
5,425
4,935
4,451
3,975
3,509
3,055
2,614
2,189
1,781
1,391
1,022
0,674
0,35
0,051
-0,221
-0,465
-0,679
-0,862
-1,011
-1,127
-1,207
-1,251
-1,258
-1,228
-1,161
-1,057
-0,918
-0,746
-0,542
-0,308
-0,048
0,236
0,54
0,861
1,196
1,543
1,897
2,257
2,619
2,981
3,339
3,692
4,036
4,37
4,691
4,997
5,285
5,555
5,804
6,03
6,232
6,407
6,554
6,67
6,755
6,806
6,823
6,804
6,749
6,66
6,536
6,379
6,192
5,976
5,734
5,468
5,183
4,881
4,564
4,236
3,901
3,561
3,219
2,878
2,542
2,212
1,891
1,581
1,283
1
0,733
0,483
0,251
0,04
-0,148
-0,312
-0,45
-0,558
-0,636
-0,682
-0,694
-0,672
-0,615
-0,524
-0,399
-0,242
-0,054
0,164
0,41
0,68
0,974
1,288
1,619
1,964
2,319
2,683
3,051
3,42
3,789
4,154
4,515
4,868
5,213
5,548
5,87
6,177
6,468
6,738
6,985
7,206
7,398
7,558
7,682
7,77
7,818
7,825
7,79
7,711
7,588
7,42
7,208
6,952
6,653
6,315
5,938
5,525
5,081
4,608
4,11
3,589
3,049
2,494
1,926
1,348
0,765
0,179
-0,405
-0,984
-1,551
-2,103
-2,634
-3,138
-3,609
-4,042
-4,432
-4,771
-5,054
-5,275
-5,428
-5,508
-5,51
-5,43
-5,264
-5,009
-4,663
-4,227
-3,698
-3,078
-2,367
-1,567
-0,678
0,297
1,358
2,501
3,726
5,027
6,402
7,845
9,352
10,915
12,53
14,19
15,886
17,612
19,36
21,122
22,888
24,649
26,393
28,108
29,784
31,409
32,97
34,459
35,864
37,177
38,39
39,497
40,49
41,362
42,108
42,719
43,189
43,509
43,673
43,674
43,506
43,167
42,655
41,968
41,11
40,084
38,897
37,553
36,056
34,408
32,611
30,669
28,585
26,364
24,012
21,533
18,938
16,245
13,471
10,631
7,732
4,768
1,739
-1,347
-4,481
-7,645
-10,818
-13,975
-17,071
-20,036
-22,796
-25,282
-27,444
-29,269
-30,754
-31,888
-32,659
-33,042
-33,024
-32,631
-31,883
-30,791
-29,383
-27,7
-25,838
-23,974
-22,307
-21,003
-20,186
-19,902
-20,164
-20,998
-22,413
-24,398
-26,913
-29,855
-33,139
-36,696
-40,41
-44,09
-47,446
-50,052
-51,45
-51,293
-49,303
-45,458
-40,031
-33,259
-25,437
-16,916
-7,754
2,065
12,479
24,477
39,876
59,725
85,251
115,689
146,86
177,977
209,99
244,799
288,546
337,098
377,078
395,699
377,427
322,153
246,463
165,538
96,154
45,145
6,186
-23,506
-46,019
-61,997
-68,097
-64,921
-55,854
-43,869
-32,206
-23,234
-17,886
-16,674
-19,501
-25,274
-32,454
-39,515
-45,471
-49,778
-52,229
-52,85
-51,768
-49,366
-46,286
-43,28
-40,825
-39,131
-38,259
-38,126
-38,696
-39,951
-41,775
-43,969
-46,353
-48,78
-51,136
-53,394
-55,523
-57,468
-59,18
-60,6
-61,691
-62,455
-62,901
-63,031
-62,842
-62,33
-61,501
-60,401
-59,082
-57,599
-56,012
-54,359
-52,669
-50,975
-49,3
-47,666
-46,084
-44,555
-43,072
-41,635
-40,248
-38,918
-37,652
-36,449
-35,302
-34,206
-33,154
-32,142
-31,165
-30,219
-29,302
-28,413
-27,553
-26,727
-25,941
-25,197
-24,496
-23,838
-23,222
-22,644
-22,103
-21,596
-21,12
-20,67
-20,244
-19,839
-19,454
-19,085
-18,73
-18,385
-18,047
-17,712
-17,377
-17,036
-16,688
-16,329
-15,954
-15,561
-15,148
-14,712
-14,251
-13,764
-13,247
-12,7
-12,12
-11,505
-10,854
-10,167
-9,441
-8,676
-7,872
-7,03
-6,15
-5,233
-4,28
-3,294
-2,276
-1,228
-0,154
0,944
2,061
3,193
4,335
5,483
6,628
7,767
8,89
9,993
11,066
12,103
13,096
14,038
14,921
15,738
16,481
17,144
17,719
18,2
18,581
18,854
19,014
19,056
18,973
18,761
18,415
17,93
17,302
16,527
15,602
14,525
13,294
11,907
10,365
8,667
6,815
4,811
2,659
0,363
-2,073
-4,643
-7,339
-10,156
-13,085
-16,119
-19,248
-22,465
-25,759
-29,123
-32,546
-36,02
-39,534
-43,081
-46,649
-50,231
-53,815
-57,393
-60,955
-64,491
-67,992
-71,448
-74,85
-78,188
-81,455
-84,642
-87,739
-90,741
-93,641
-96,432
-99,109
-101,668
-104,105
-106,417
-108,602
-110,66
-112,588
-114,388
-116,059
-117,602
-119,02
-120,314
-121,486
-122,538
-123,474
-124,295
-125,007
-125,612
-126,115
-126,519
-126,829
-127,051
-127,19
-127,251
-127,241
-127,165
-127,03
-126,842
-126,609
-126,337
-126,033
-125,702
-125,351
-124,987
-124,613
-124,236
-123,86
-123,49
-123,129
-122,782
-122,451
-122,141
-121,854
-121,592
-121,357
-121,153
-120,981
-120,842
-120,739
-120,672
-120,643
-120,651
-120,699
-120,786
-120,911
-121,074
-121,275
-121,512
-121,783
-122,086
-122,42
-122,78
-123,166
-123,573
-123,999
-124,441
-124,895
-125,36
-125,831
-126,307
-126,783
-127,256
-127,725
-128,186
-128,637
-129,074
-129,495
-129,898
-130,28
-130,638
-130,97
-131,273
-131,546
-131,786
-131,99
-132,158
-132,287
-132,375
-132,422
-132,427
-132,389
-132,308
-132,184
-132,017
-131,807
-131,556
-131,264
-130,932
-130,561
-130,153
-129,71
-129,232
-128,722
-128,182
-127,613
-127,017
-126,397
-125,755
-125,092
-124,411
-123,714
-123,003
-122,279
-121,547
-120,807
-120,062
-119,315
-118,567
-117,82
-117,078
-116,341
-115,611
-114,889
-114,177
-113,475
-112,785
-112,107
-111,441
-110,788
-110,148
-109,521
-108,907
-108,305
-107,716
-107,138
-106,571
-106,015
-105,47
-104,933
-104,406
-103,887
-103,376
-102,873
-102,378
-101,889
-101,407
-100,931
-100,461
-99,995
-99,534
-99,076
-98,622
-98,172
-97,724
-97,279
-96,838
-96,401
-95,967
-95,538
-95,113
-94,693
-94,279
-93,871
-93,469
-93,074
-92,685
-92,305
-91,933
-91,569
-91,214
-90,867
-90,528
-90,196
-89,871
-89,552
-89,236
-88,924
-88,613
-88,302
-87,991
-87,676
-87,359
-87,036
-86,705
-86,366
-86,016
-85,653
-85,274
-84,877
-84,46
-84,02
-83,555
-83,063
-82,543
-81,991
-81,406
-80,786
-80,129
-79,432
-78,695
-77,914
-77,088
-76,216
-75,297
-74,329
-73,314
-72,25
-71,137
-69,975
-68,765
-67,507
-66,199
-64,842
-63,435
-61,978
-60,472
-58,915
-57,31
-55,655
-53,951
-52,199
-50,399
-48,552
-46,656
-44,712
-42,718
-40,675
-38,581
-36,435
-34,239
-31,991
-29,69
-27,339
-24,936
-22,481
-19,974
-17,414
-14,801
-12,132
-9,409
-6,629
-3,793
-0,9
2,049
5,053
8,108
11,215
14,37
17,572
20,818
24,105
27,431
30,793
34,189
37,614
41,063
44,531
48,01
51,493
54,973
58,443
61,893
65,316
68,705
72,052
75,35
78,591
81,764
84,861
87,872
90,785
93,59
96,273
98,823
101,229
103,484
105,578
107,505
109,26
110,839
112,24
113,461
114,498
115,347
116,002
116,456
116,708
116,753
116,589
116,216
115,633
114,847
113,868
112,708
111,373
109,867
108,186
106,327
104,302
102,125
99,811
97,381
94,865
92,304
89,77
87,33
85,038
82,933
81,025
79,328
77,857
76,628
75,66
74,957
74,508
74,309
74,368
74,684
75,229
75,923
76,614
77,147
77,409
77,322
76,848
75,956
74,629
72,888
70,789
68,44
65,938
63,33
60,652
57,964
55,403
53,237
51,823
51,487
52,558
55,374
60,129
66,913
75,583
85,652
96,625
108,068
119,531
130,793
142,003
153,649
166,866
183,214
203,854
229,625
260,907
297,071
336,888
378,164
416,724
448,02
468,233
473,469
463,367
439,317
400,016
347,691
283,11
206,925
130,746
63,716
15,2
-5,016
-3,332
12,976
36,744
57,493
75,794
92,735
106,995
120,043
129,44
133,414
133,474
130,779
127,382
125,127
124,362
125,226
127,722
131,44
135,917
140,545
144,572
147,598
149,531
150,388
150,327
149,501
148,052
146,214
144,239
142,301
140,51
138,904
137,486
136,303
135,399
134,795
134,509
134,523
134,814
135,375
136,185
137,211
138,414
139,739
141,13
142,538
143,924
145,265
146,543
147,741
148,847
149,855
150,761
151,573
152,293
152,922
153,461
153,91
154,273
154,558
154,773
154,929
155,031
155,086
155,095
155,061
154,985
154,867
154,705
154,496
154,238
153,933
153,581
153,187
152,754
152,285
151,782
151,25
150,691
150,109
149,505
148,883
148,244
147,592
146,93
146,262
145,591
144,919
144,251
143,589
142,936
142,293
141,663
141,047
140,446
139,861
139,294
138,744
138,214
137,702
137,211
136,74
136,288
135,855
135,441
135,043
134,661
134,292
133,934
133,584
133,239
132,894
132,547
132,193
131,827
131,444
131,04
130,61
130,147
129,647
129,105
128,515
127,872
127,172
126,408
125,577
124,675
123,696
122,637
121,494
120,262
118,94
117,522
116,006
114,388
112,667
110,838
108,9
106,851
104,689
102,413
100,024
97,522
94,908
92,184
89,352
86,416
83,38
80,247
77,023
73,713
70,323
66,858
63,324
59,729
56,079
52,38
48,64
44,866
41,065
37,243
33,409
29,569
25,73
21,9
18,087
14,299
10,542
6,827
3,159
-0,452
-3,999
-7,476
-10,874
-14,188
-17,411
-20,538
-23,565
-26,486
-29,299
-31,999
-34,583
-37,051
-39,399
-41,627
-43,733
-45,717
-47,578
-49,317
-50,934
-52,428
-53,8
-55,051
-56,181
-57,19
-58,081
-58,853
-59,509
-60,05
-60,479
-60,799
-61,012
-61,122
-61,131
-61,044
-60,863
-60,593
-60,236
-59,797
-59,278
-58,684
-58,017
-57,28
-56,478
-55,611
-54,684
-53,698
-52,655
-51,56
-50,412
-49,216
-47,974
-46,689
-45,364
-44,003
-42,608
-41,184
-39,735
-38,264
-36,775
-35,273
-33,761
-32,243
-30,723
-29,204
-27,69
-26,185
-24,691
-23,212
-21,751
-20,31
-18,892
-17,499
-16,133
-14,797
-13,493
-12,222
-10,988
-9,791
-8,634
-7,518
-6,444
-5,415
-4,43
-3,49
-2,596
-1,745
-0,939
-0,176
0,547
1,23
1,876
2,488
3,068
3,62
4,148
4,654
5,143
5,619
6,084
6,544
7
7,457
7,917
8,383
8,858
9,343
9,841
10,355
10,885
11,434
12,002
12,592
13,204
13,838
14,495
15,175
15,877
16,6
17,344
18,107
18,888
19,685
20,495
21,315
22,142
22,973
23,803
24,629
25,446
26,249
27,034
27,798
28,535
29,244
29,919
30,559
31,16
31,72
32,237
32,711
33,139
33,521
33,858
34,149
34,397
34,601
34,764
34,888
34,975
35,029
35,051
35,046
35,016
34,965
34,899
34,82
34,734
34,646
34,562
34,488
34,429
34,391
34,38
34,401
34,46
34,562
34,712
34,914
35,172
35,489
35,869
36,313
36,823
37,399
38,042
38,75
39,523
40,358
41,253
42,204
43,209
44,263
45,363
46,504
47,682
48,892
50,129
51,388
52,662
53,947
55,236
56,522
57,801
59,064
60,307
61,523
62,707
63,851
64,951
66,002
66,998
67,937
68,813
69,625
70,37
71,046
71,653
72,19
72,659
73,061
73,398
73,672
73,886
74,045
74,152
74,211
74,227
74,204
74,148
74,064
73,955
73,829
73,69
73,545
73,398
73,257
73,126
73,013
72,924
72,864
72,839
72,855
72,917
73,029
73,196
73,421
73,708
74,06
74,48
74,969
75,529
76,158
76,858
77,625
78,459
79,354
80,307
81,315
82,372
83,474
84,615
85,789
86,991
88,214
89,452
90,697
91,94
93,172
94,383
95,563
96,702
97,788
98,812
99,763
100,63
101,404
102,072
102,625
103,052
103,339
103,475
103,45
103,251
102,87
102,297
101,523
100,542
99,349
97,938
96,305
94,444
92,353
90,026
87,461
84,654
81,602
78,303
74,758
70,969
66,941
62,68
58,195
53,495
48,594
43,506
38,24
32,809
27,224
21,494
15,635
9,66
3,581
-2,582
-8,814
-15,094
-21,392
-27,688
-33,958
-40,189
-46,377
-52,512
-58,573
-64,542
-70,399
-76,111
-81,643
-86,939
-91,92
-96,524
-100,702
-104,417
-107,664
-110,436
-112,726
-114,53
-115,835
-116,635
-116,942
-116,755
-116,068
-114,907
-113,329
-111,447
-109,444
-107,478
-105,668
-104,099
-102,807
-101,814
-101,117
-100,694
-100,481
-100,407
-100,437
-100,58
-100,865
-101,256
-101,58
-101,511
-100,678
-98,769
-95,407
-90,238
-83,034
-73,774
-62,874
-50,989
-38,347
-25,102
-11,759
1,139
12,243
21,934
32,811
47,998
72,214
101,205
134,399
188,866
230,243
193,537
153,963
258,9
451,184
512,4
384,424
227,632
142,429
68,282
-25,901
-105,522
-161,423
-189,409
-187,435
-168,192
-139,985
-116,885
-105,36
-94,995
-83,531
-72,102
-64,776
-75,814
-106
-142,894
-174,534
-184,709
-171,027
-147,373
-124,615
-114,082
-118,561
-128,746
-139,098
-145,862
-147,745
-148,774
-150,738
-153,472
-157,091
-160,777
-164,107
-167,411
-170,686
-173,786
-176,723
-179,479
-181,973
-184,11
-185,784
-186,905
-187,475
-187,561
-187,195
-186,373
-185,108
-183,443
-181,446
-179,2
-176,785
-174,242
-171,605
-168,915
-166,206
-163,515
-160,874
-158,291
-155,766
-153,308
-150,928
-148,642
-146,468
-144,41
-142,47
-140,646
-138,938
-137,345
-135,867
-134,501
-133,246
-132,1
-131,064
-130,138
-129,325
-128,624
-128,029
-127,533
-127,128
-126,803
-126,55
-126,356
-126,21
-126,101
-126,017
-125,949
-125,884
-125,814
-125,725
-125,606
-125,446
-125,232
-124,953
-124,6
-124,161
-123,628
-122,992
-122,248
-121,389
-120,41
-119,308
-118,081
-116,727
-115,247
-113,64
-111,91
-110,059
-108,094
-106,021
-103,846
-101,577
-99,224
-96,796
-94,304
-91,757
-89,167
-86,544
-83,899
-81,243
-78,589
-75,948
-73,332
-70,754
-68,225
-65,758
-63,365
-61,056
-58,844
-56,739
-54,751
-52,89
-51,166
-49,587
-48,161
-46,895
-45,794
-44,865
-44,111
-43,534
-43,136
-42,919
-42,881
-43,023
-43,342
-43,837
-44,506
-45,345
-46,351
-47,521
-48,85
-50,333
-51,967
-53,745
-55,661
-57,709
-59,883
-62,177
-64,582
-67,092
-69,699
-72,394
-75,17
-78,017
-80,926
-83,888
-86,894
-89,934
-93
-96,083
-99,175
-102,268
-105,354
-108,428
-111,481
-114,509
-117,503
-120,459
-123,371
-126,232
-129,036
-131,778
-134,453
-137,055
-139,578
-142,018
-144,369
-146,627
-148,786
-150,843
-152,792
-154,632
-156,357
-157,968
-159,461
-160,835
-162,092
-163,231
-164,253
-165,159
-165,952
-166,633
-167,204
-167,668
-168,027
-168,283
-168,439
-168,497
-168,462
-168,335
-168,121
-167,823
-167,445
-166,99
-166,463
-165,87
-165,213
-164,499
-163,734
-162,921
-162,068
-161,18
-160,261
-159,319
-158,356
-157,378
-156,389
-155,391
-154,387
-153,38
-152,37
-151,358
-150,346
-149,333
-148,32
-147,306
-146,293
-145,278
-144,263
-143,245
-142,226
-141,204
-140,179
-139,149
-138,115
-137,075
-136,028
-134,975
-133,912
-132,84
-131,757
-130,662
-129,553
-128,429
-127,289
-126,133
-124,96
-123,771
-122,567
-121,35
-120,122
-118,887
-117,647
-116,407
-115,171
-113,946
-112,735
-111,544
-110,379
-109,246
-108,151
-107,099
-106,097
-105,15
-104,264
-103,444
-102,696
-102,024
-101,434
-100,929
-100,515
-100,195
-99,973
-99,854
-99,84
-99,934
-100,14
-100,457
-100,888
-101,432
-102,089
-102,856
-103,732
-104,712
-105,793
-106,969
-108,234
-109,581
-111,004
-112,494
-114,043
-115,642
-117,281
-118,951
-120,642
-122,344
-124,047
-125,741
-127,415
-129,06
-130,665
-132,219
-133,714
-135,138
-136,482
-137,736
-138,889
-139,934
-140,86
-141,659
-142,323
-142,845
-143,219
-143,438
-143,498
-143,393
-143,122
-142,68
-142,067
-141,28
-140,32
-139,186
-137,88
-136,404
-134,76
-132,951
-130,981
-128,852
-126,57
-124,139
-121,565
-118,853
-116,008
-113,037
-109,947
-106,745
-103,438
-100,034
-96,542
-92,969
-89,326
-85,619
-81,859
-78,054
-74,212
-70,343
-66,454
-62,556
-58,655
-54,76
-50,879
-47,02
-43,19
-39,396
-35,645
-31,943
-28,298
-24,714
-21,198
-17,757
-14,395
-11,118
-7,931
-4,84
-1,85
1,034
3,809
6,471
9,015
11,439
13,739
15,914
17,961
19,878
21,665
23,32
24,843
26,234
27,492
28,62
29,617
30,485
31,226
31,841
32,333
32,705
32,959
33,099
33,128
33,05
32,871
32,595
32,229
31,778
31,25
30,651
29,99
29,275
28,514
27,716
26,891
26,049
25,198
24,349
23,512
22,697
21,913
21,17
20,477
19,842
19,275
18,784
18,377
18,06
17,843
17,731
17,732
17,852
18,096
18,469
18,976
19,619
20,401
21,322
22,384
23,585
24,926
26,402
28,012
29,749
31,609
33,584
35,665
37,843
40,105
42,441
44,838
47,284
49,765
52,269
54,782
57,291
59,785
62,25
64,672
67,036
69,329
71,534
73,639
75,626
77,481
79,191
80,743
82,129
83,343
84,377
85,227
85,887
86,354
86,625
86,699
86,573
86,249
85,733
85,034
84,162
83,132
81,96
80,66
79,247
77,736
76,129
74,433
72,65
70,776
68,82
66,799
64,734
62,655
60,594
58,58
56,659
54,881
53,275
51,867
50,672
49,696
48,978
48,567
48,505
48,838
49,597
50,785
52,419
54,522
57,062
59,979
63,164
66,451
69,733
72,987
76,167
79,195
82,043
84,73
87,397
90,434
94,208
98,795
104,205
110,418
117,121
123,962
130,455
135,441
137,664
136,645
132,297
125,033
116,341
107,706
100,482
97,556
102,494
117,614
144,699
182,108
223,926
266,381
308,35
353,584
409,396
474,763
538,108
577,912
571,478
512,478
413,242
300,022
200,491
128,26
82,401
53,87
34,454
21,798
17,3
22,63
35,627
51,836
67,493
79,4
86,121
87,607
84,068
76,523
66,993
57,492
49,308
43,329
39,817
38,586
39,494
42,13
45,734
49,506
52,88
55,537
57,414
58,591
59,094
58,972
58,327
57,301
56,059
54,708
53,322
51,969
50,694
49,545
48,576
47,827
47,335
47,132
47,219
47,587
48,235
49,158
50,348
51,794
53,45
55,265
57,189
59,158
61,131
63,076
64,961
66,762
68,464
70,056
71,539
72,924
74,212
75,401
76,49
77,477
78,365
79,166
79,889
80,546
81,147
81,7
82,214
82,697
83,154
83,585
83,993
84,376
84,736
85,077
85,403
85,72
86,034
86,35
86,674
87,011
87,367
87,745
88,148
88,578
89,036
89,526
90,048
90,603
91,194
91,82
92,483
93,183
93,921
94,696
95,509
96,359
97,243
98,163
99,115
100,099
101,113
102,155
103,223
104,316
105,431
106,563
107,711
108,871
110,038
111,209
112,378
113,541
114,695
115,833
116,954
118,052
119,124
120,167
121,176
122,148
123,079
123,966
124,804
125,589
126,316
126,982
127,581
128,11
128,563
128,936
129,226
129,427
129,535
129,548
129,461
129,271
128,975
128,57
128,055
127,426
126,684
125,826
124,853
123,765
122,561
121,243
119,81
118,265
116,608
114,841
112,965
110,983
108,898
106,712
104,429
102,053
99,59
97,043
94,42
91,725
88,966
86,148
83,279
80,366
77,416
74,436
71,435
68,42
65,399
62,381
59,372
56,38
53,413
50,478
47,58
44,727
41,925
39,18
36,497
33,881
31,339
28,875
26,494
24,2
21,997
19,888
17,878
15,967
14,158
12,452
10,851
9,355
7,963
6,677
5,494
4,414
3,436
2,557
1,775
1,087
0,489
-0,022
-0,45
-0,799
-1,074
-1,277
-1,414
-1,488
-1,504
-1,465
-1,375
-1,239
-1,061
-0,844
-0,593
-0,311
-0,002
0,331
0,685
1,056
1,442
1,841
2,248
2,663
3,082
3,503
3,923
4,34
4,753
5,159
5,556
5,944
6,322
6,689
7,044
7,387
7,717
8,035
8,34
8,631
8,908
9,172
9,422
9,658
9,88
10,086
10,278
10,454
10,612
10,754
10,876
10,979
11,061
11,122
11,161
11,176
11,169
11,139
11,087
11,013
10,917
10,8
10,664
10,508
10,335
10,144
9,938
9,717
9,483
9,235
8,977
8,708
8,431
8,145
7,853
7,556
7,255
6,952
6,65
6,35
6,055
5,768
5,491
5,227
4,979
4,75
4,543
4,359
4,2
4,069
3,966
3,893
3,849
3,836
3,852
3,898
3,973
4,075
4,203
4,356
4,532
4,73
4,948
5,185
5,439
5,709
5,993
6,291
6,6
6,92
7,249
7,586
7,927
8,272
8,619
8,965
9,309
9,65
9,985
10,315
10,638
10,955
11,265
11,57
11,87
12,168
12,465
12,765
13,072
13,389
13,721
14,073
14,45
14,857
15,3
15,783
16,311
16,889
17,52
18,209
18,958
19,772
20,655
21,609
22,639
23,747
24,937
26,212
27,573
29,022
30,56
32,186
33,9
35,701
37,588
39,557
41,605
43,73
45,926
48,187
50,509
52,882
55,297
57,744
60,213
62,693
65,172
67,641
70,087
72,501
74,874
77,194
79,454
81,642
83,747
85,759
87,666
89,456
91,116
92,637
94,009
95,224
96,276
97,16
97,874
98,418
98,792
98,996
99,031
98,895
98,587
98,107
97,457
96,637
95,654
94,511
93,213
91,775
90,21
88,53
86,744
84,845
82,833
80,717
78,51
76,229
73,904
71,562
69,242
67,016
64,953
63,122
61,583
60,362
59,47
58,922
58,736
58,939
59,552
60,552
61,903
63,582
65,553
67,77
70,148
72,514
74,677
76,467
77,735
78,399
78,424
77,779
76,445
74,441
71,812
68,654
65,112
61,309
57,372
53,485
49,926
47,053
45,315
45,203
47,034
50,952
56,928
64,656
73,795
84,12
95,224
106,587
118,178
130,326
143,859
160,412
181,27
207,051
238,419
275,524
317,223
361,679
405,858
445,04
475,074
492,577
494,114
477,852
444,097
394,238
331,63
261,933
190,502
122,67
64,298
19,207
-10,862
-25,205
-25,131
-13,791
5,754
29,779
53,71
74,537
90,519
100,553
104,923
104,644
100,575
94,179
87,461
81,579
77,174
74,552
73,294
72,93
73,147
73,388
73,039
71,819
69,596
66,406
62,542
58,245
53,725
49,247
44,976
40,996
37,364
34,083
31,15
28,58
26,365
24,489
22,948
21,731
20,833
20,241
19,905
19,766
19,757
19,807
19,88
19,952
20,001
20,015
19,981
19,889
19,745
19,557
19,321
19,033
18,685
18,272
17,798
17,274
16,704
16,101
15,47
14,818
14,152
13,476
12,791
12,099
11,4
10,69
9,971
9,248
8,523
7,803
7,093
6,4
5,731
5,093
4,492
3,933
3,423
2,964
2,561
2,218
1,939
1,727
1,587
1,52
1,529
1,617
1,786
2,035
2,367
2,78
3,274
3,848
4,5
5,227
6,03
6,904
7,847
8,855
9,926
11,055
12,236
13,466
14,738
16,046
17,383
18,741
20,115
21,498
22,881
24,26
25,626
26,973
28,295
29,585
30,837
32,046
33,204
34,307
35,348
36,322
37,224
38,049
38,791
39,445
40,007
40,471
40,832
41,088
41,232
41,263
41,175
40,966
40,633
40,175
39,588
38,872
38,026
37,049
35,941
34,703
33,334
31,837
30,213
28,463
26,591
24,598
22,487
20,261
17,925
15,481
12,934
10,29
7,553
4,729
1,825
-1,153
-4,196
-7,298
-10,451
-13,646
-16,876
-20,131
-23,403
-26,685
-29,967
-33,241
-36,499
-39,732
-42,933
-46,093
-49,205
-52,263
-55,259
-58,187
-61,041
-63,815
-66,506
-69,107
-71,614
-74,024
-76,334
-78,54
-80,642
-82,637
-84,526
-86,309
-87,987
-89,562
-91,037
-92,416
-93,702
-94,899
-96,012
-97,047
-98,007
-98,9
-99,73
-100,504
-101,228
-101,908
-102,549
-103,16
-103,744
-104,309
-104,86
-105,403
-105,943
-106,485
-107,034
-107,594
-108,169
-108,764
-109,381
-110,024
-110,694
-111,395
-112,126
-112,889
-113,683
-114,509
-115,363
-116,245
-117,152
-118,081
-119,031
-119,999
-120,981
-121,978
-122,986
-124,003
-125,029
-126,061
-127,098
-128,139
-129,183
-130,229
-131,277
-132,326
-133,376
-134,43
-135,488
-136,553
-137,626
-138,709
-139,806
-140,922
-142,059
-143,222
-144,412
-145,633
-146,891
-148,191
-149,536
-150,932
-152,38
-153,885
-155,455
-157,095
-158,806
-160,589
-162,444
-164,369
-166,365
-168,43
-170,561
-172,753
-174,998
-177,298
-179,657
-182,08
-184,573
-187,131
-189,731
-192,356
-194,99
-197,609
-200,19
-202,703
-205,112
-207,399
-209,562
-211,6
-213,508
-215,262
-216,824
-218,16
-219,229
-220,025
-220,573
-220,902
-221,056
-221,096
-221,086
-221,11
-221,261
-221,584
-222,07
-222,694
-223,429
-224,274
-225,256
-226,408
-227,745
-229,223
-230,734
-232,132
-233,237
-233,857
-233,752
-232,637
-230,303
-226,69
-221,948
-216,421
-210,402
-204,087
-197,727
-191,457
-185,159
-178,567
-171,004
-161,547
