Name
Date of Birth,"23. May 1994"
Recorded Date,2020-04-05 23:25:40 +0200
Classification,Sinus Rhythm
Symptoms,
Software Version,1.52
Device,"Watch5,1"
Sample Rate,511,422 hertz


Lead,Lead I
Unit,µV

-80,319
-88,244
-96,42
-104,677
-112,762
-120,395
-127,39
-133,636
-139,074
-143,68
-147,419
-150,263
-152,269
-153,545
-154,226
-154,475
-154,38
-153,981
-153,337
-152,498
-151,539
-150,553
-149,586
-148,644
-147,74
-146,877
-146,065
-145,314
-144,593
-143,839
-142,987
-141,964
-140,728
-139,262
-137,551
-135,584
-133,357
-130,867
-128,127
-125,164
-121,995
-118,629
-115,076
-111,343
-107,446
-103,412
-99,266
-95,034
-90,736
-86,39
-82,011
-77,617
-73,218
-68,821
-64,431
-60,051
-55,685
-51,343
-47,034
-42,769
-38,558
-34,412
-30,342
-26,358
-22,469
-18,684
-15,009
-11,45
-8,01
-4,696
-1,512
1,537
4,446
7,212
9,828
12,292
14,598
16,744
18,725
20,539
22,178
23,638
24,917
26,016
26,932
27,662
28,201
28,539
28,683
28,646
28,403
27,94
27,244
26,297
25,123
23,762
22,191
20,381
18,413
16,351
14,245
12,173
10,083
7,867
5,598
3,399
0,975
-2,025
-5,375
-9,088
-13,222
-16,994
-22,477
-31,687
-41,719
-51,683
-56,248
-49,036
-37,084
-25,079
-20,003
-31,455
-50,927
-71,202
-87,336
-91,16
-88,5
-85,259
-82,744
-84,553
-88,586
-92,149
-95,748
-99,034
-102,183
-105,734
-109,325
-112,667
-115,849
-118,886
-121,741
-124,417
-126,931
-129,289
-131,539
-133,741
-135,866
-137,886
-139,809
-141,632
-143,353
-144,977
-146,495
-147,902
-149,2
-150,393
-151,482
-152,469
-153,354
-154,138
-154,821
-155,405
-155,891
-156,281
-156,576
-156,779
-156,892
-156,918
-156,861
-156,726
-156,518
-156,242
-155,907
-155,519
-155,089
-154,626
-154,143
-153,649
-153,158
-152,682
-152,233
-151,823
-151,464
-151,168
-150,944
-150,805
-150,759
-150,818
-150,992
-151,289
-151,72
-152,291
-153,011
-153,888
-154,927
-156,135
-157,514
-159,071
-160,808
-162,731
-164,842
-167,142
-169,632
-172,311
-175,175
-178,221
-181,442
-184,827
-188,367
-192,05
-195,864
-199,798
-203,838
-207,972
-212,19
-216,484
-220,842
-225,255
-229,71
-234,195
-238,697
-243,203
-247,697
-252,16
-256,574
-260,925
-265,201
-269,395
-273,499
-277,504
-281,398
-285,169
-288,811
-292,315
-295,669
-298,851
-301,842
-304,637
-307,24
-309,673
-311,955
-314,086
-316,062
-317,876
-319,515
-320,962
-322,181
-323,099
-323,644
-323,759
-323,42
-322,64
-321,43
-319,785
-317,69
-315,11
-312,037
-308,502
-304,522
-300,108
-295,308
-290,174
-284,818
-279,458
-274,272
-269,434
-265,112
-261,353
-258,197
-255,68
-253,752
-252,46
-251,923
-251,961
-252,23
-252,413
-252,016
-250,885
-249,178
-246,447
-242,042
-235,955
-228,681
-221,298
-215,287
-210,889
-207,257
-204,171
-201,476
-198,285
-192,779
-181,595
-160,884
-128,92
-86,262
-33,88
26,7
92,673
159,204
218,869
263,441
288,849
296,124
286,476
259,303
208,238
125,04
11,383
-117,872
-234,426
-309,466
-329,131
-299,543
-245,953
-194,649
-160,861
-146,761
-141,79
-137,124
-130,905
-124,935
-123,933
-129,287
-138,168
-147,49
-154,904
-159,464
-161,412
-160,996
-158,352
-153,978
-148,737
-143,575
-139,126
-135,562
-132,762
-130,643
-128,851
-127,078
-125,453
-123,622
-122,509
-122,948
-124,066
-125,778
-123,772
-118,781
-108,366
-69,8
-48,713
-123,801
-191,306
-121,351
-32,067
-43,073
-77,73
-77,757
-70,697
-65,576
-57,848
-50,666
-44,585
-39,621
-35,383
-31,023
-26,706
-22,492
-18,367
-14,436
-10,69
-7,117
-3,724
-0,503
2,563
5,487
8,282
10,96
13,534
16,016
18,419
20,748
23,007
25,201
27,34
29,431
31,488
33,524
35,549
37,578
39,625
41,702
43,823
45,996
48,231
50,536
52,921
55,392
57,955
60,616
63,381
66,254
69,24
72,341
75,559
78,895
82,349
85,919
89,602
93,395
97,293
101,29
105,382
109,562
113,824
118,162
122,567
127,031
131,545
136,099
140,681
145,281
149,884
154,478
159,049
163,584
168,07
172,493
176,841
181,099
185,254
189,294
193,205
196,973
200,585
204,028
207,29
210,36
213,225
215,875
218,3
220,492
222,441
224,141
225,582
226,758
227,663
228,291
228,636
228,697
228,468
227,95
227,142
226,045
224,662
222,995
221,05
218,832
216,348
213,605
210,612
207,379
203,917
200,237
196,352
192,277
188,027
183,616
179,061
174,379
169,587
164,701
159,738
154,717
149,655
144,569
139,478
134,399
129,351
124,352
119,418
114,567
109,815
105,178
100,67
96,304
92,094
88,051
84,185
80,507
77,024
73,746
70,677
67,823
65,187
62,772
60,579
58,607
56,853
55,315
53,989
52,869
51,95
51,224
50,684
50,322
50,128
50,092
50,203
50,451
50,824
51,309
51,893
52,565
53,312
54,121
54,98
55,879
56,805
57,748
58,697
59,643
60,577
61,489
62,372
63,219
64,024
64,783
65,491
66,147
66,748
67,295
67,788
68,228
68,618
68,961
69,26
69,52
69,745
69,942
70,117
70,278
70,428
70,579
70,73
70,865
71,051
71,326
71,671
72,175
72,532
72,493
72,358
72,044
72,713
75,311
78,999
83,652
85,015
83,813
77,685
44,41
28,596
107,182
178,671
116,037
34,819
51,977
92,519
99,373
99,375
101,275
100,581
100,336
101,052
102,712
104,899
106,762
108,462
110,048
111,494
112,886
114,195
115,396
116,492
117,48
118,352
119,101
119,723
120,212
120,564
120,775
120,841
120,762
120,535
120,162
119,644
118,985
118,188
117,254
116,188
114,992
113,669
112,22
110,644
108,941
107,113
105,164
103,096
100,915
98,629
96,244
93,775
91,231
88,619
85,942
83,2
80,391
77,516
74,576
71,573
68,513
65,403
62,255
59,088
55,92
52,761
49,608
46,442
43,246
40,017
36,759
33,484
30,208
26,957
23,769
20,711
17,844
15,209
12,823
10,673
8,745
7,034
5,558
4,354
3,447
2,852
2,575
2,612
2,963
3,594
4,435
5,371
6,269
7,029
7,586
7,907
7,959
7,732
7,187
6,22
4,862
3,284
1,775
0,8
0,87
2,382
5,63
10,982
18,419
27,278
36,612
44,966
50,568
52,129
49,159
41,569
30,329
17,995
7,238
1,084
4,112
20,516
52,318
100,988
163,732
232,212
302,404
372,258
440,898
513,15
583,557
635,77
651,725
613,269
517,826
382,443
235,805
105,993
10,307
-47,242
-77,933
-92,688
-97,818
-97,858
-88,937
-70,2
-45,494
-18,02
5,971
22,582
31,577
33,021
28,667
20,757
11,053
1,758
-5,629
-10,556
-12,842
-12,88
-11,279
-8,652
-5,775
-3,431
-2,043
-1,738
-2,467
-4,005
-6,176
-8,815
-11,678
-14,539
-17,224
-19,664
-21,868
-23,865
-25,639
-27,125
-28,264
-29,02
-29,407
-29,463
-29,204
-28,63
-27,721
-26,418
-24,703
-22,628
-20,253
-17,667
-14,941
-12,015
-8,929
-5,961
-3,272
-0,904
1,32
4,022
7,719
12,374
17,864
24,281
31,391
38,451
44,422
47,579
45,787
40,145
32
19,597
4,529
-16,613
-47,306
-79,036
-108,735
-126,647
-118,711
-88,541
-34,286
35,759
98,525
144,755
160,22
141,783
108,087
70,756
43,409
32,572
28,09
24,239
18,205
9,788
4,803
5,62
10,74
18,277
26,152
33,564
40,707
47,314
52,885
57,196
60,562
63,727
67,101
70,712
74,418
78,041
81,601
85,196
88,802
92,295
95,591
98,657
101,527
104,296
107,005
109,654
112,237
114,73
117,127
119,441
121,68
123,843
125,925
127,908
129,772
131,503
133,086
134,508
135,752
136,796
137,623
138,221
138,586
138,72
138,622
138,285
137,705
136,875
135,794
134,461
132,878
131,044
128,961
126,632
124,062
121,259
118,229
114,98
111,52
107,855
103,995
99,952
95,735
91,358
86,832
82,172
77,391
72,505
67,531
62,484
57,381
52,24
47,078
41,914
36,764
31,647
26,58
21,579
16,662
11,843
7,138
2,56
-1,876
-6,159
-10,278
-14,222
-17,984
-21,556
-24,933
-28,109
-31,081
-33,848
-36,408
-38,76
-40,907
-42,85
-44,592
-46,137
-47,489
-48,656
-49,643
-50,459
-51,112
-51,613
-51,972
-52,2
-52,308
-52,308
-52,212
-52,032
-51,781
-51,47
-51,111
-50,717
-50,298
-49,866
-49,431
-49,003
-48,59
-48,201
-47,844
-47,524
-47,247
-47,019
-46,845
-46,726
-46,669
-46,674
-46,744
-46,882
-47,087
-47,362
-47,705
-48,115
-48,591
-49,132
-49,736
-50,399
-51,119
-51,893
-52,719
-53,594
-54,514
-55,477
-56,478
-57,515
-58,585
-59,683
-60,807
-61,953
-63,12
-64,304
-65,504
-66,717
-67,942
-69,178
-70,421
-71,672
-72,926
-74,184
-75,443
-76,701
-77,957
-79,21
-80,459
-81,704
-82,942
-84,174
-85,398
-86,612
-87,816
-89,008
-90,184
-91,343
-92,483
-93,601
-94,695
-95,762
-96,801
-97,809
-98,784
-99,723
-100,623
-101,484
-102,302
-103,075
-103,802
-104,483
-105,117
-105,705
-106,247
-106,744
-107,197
-107,607
-107,975
-108,303
-108,59
-108,838
-109,048
-109,221
-109,359
-109,464
-109,541
-109,59
-109,617
-109,624
-109,616
-109,596
-109,569
-109,537
-109,504
-109,477
-109,457
-109,451
-109,461
-109,493
-109,55
-109,633
-109,746
-109,889
-110,06
-110,26
-110,486
-110,737
-111,012
-111,309
-111,628
-111,969
-112,332
-112,718
-113,128
-113,561
-114,017
-114,497
-115
-115,525
-116,072
-116,64
-117,229
-117,84
-118,474
-119,133
-119,817
-120,527
-121,266
-122,033
-122,83
-123,656
-124,51
-125,392
-126,305
-127,251
-128,236
-129,264
-130,34
-131,469
-132,651
-133,882
-135,159
-136,471
-137,805
-139,152
-140,499
-141,839
-143,171
-144,498
-145,827
-147,166
-148,516
-149,88
-151,259
-152,653
-154,063
-155,489
-156,926
-158,373
-159,827
-161,28
-162,726
-164,15
-165,519
-166,785
-167,879
-168,73
-169,285
-169,491
-169,294
-168,629
-167,408
-165,57
-163,096
-159,996
-156,323
-152,141
-147,485
-142,465
-137,267
-132,02
-126,798
-121,519
-115,821
-109,336
-101,785
-92,917
-82,66
-71,215
-59,116
-47,468
-37,978
-32,464
-32,541
-39,28
-52,763
-72,299
-96,226
-121,28
-142,953
-156,026
-154,992
-138,021
-107,743
-66,761
-18,864
39,138
118,133
221,011
344,12
464,773
542,254
546,08
458,064
292,752
97,113
-81,334
-197,573
-238,089
-224,169
-180,713
-138,544
-109,692
-80,946
-48,516
-12,502
19,885
26,497
3,746
-34,445
-74,929
-98,953
-101,199
-93,668
-83,977
-78,15
-78,103
-78,292
-76,563
-73,834
-70,788
-68,697
-67,903
-67,695
-67,733
-68,174
-69,041
-70,15
-71,347
-72,489
-73,451
-74,266
-74,961
-75,436
-75,651
-75,612
-75,295
-74,725
-73,942
-72,924
-71,659
-70,143
-68,351
-66,29
-63,99
-61,494
-58,878
-56,21
-53,535
-50,893
-48,314
-45,816
-43,417
-41,121
-38,911
-36,786
-34,748
-32,803
-30,966
-29,247
-27,643
-26,151
-24,763
-23,465
-22,248
-21,101
-20,008
-18,961
-17,951
-16,971
-16,019
-15,093
-14,186
-13,292
-12,399
-11,499
-10,582
-9,639
-8,658
-7,629
-6,545
-5,398
-4,183
-2,895
-1,527
-0,075
1,465
3,099
4,831
6,663
8,599
10,641
12,791
15,049
17,414
19,886
22,461
25,137
27,911
30,777
33,733
36,774
39,894
43,088
46,352
49,678
53,06
56,492
59,965
63,472
67,005
70,555
74,115
77,677
81,232
84,772
88,288
91,771
95,211
98,599
101,924
105,177
108,348
111,428
114,406
117,275
120,025
122,648
125,136
127,481
129,674
131,709
133,576
135,27
136,784
138,111
139,245
140,181
140,916
141,444
141,762
141,868
141,759
141,433
140,889
140,126
139,147
137,952
136,545
134,93
133,112
131,098
128,896
126,513
123,957
121,24
118,369
115,357
112,214
108,951
105,582
102,119
98,576
94,966
91,303
87,602
83,877
80,142
76,411
72,698
69,015
65,377
61,796
58,284
54,854
51,518
48,286
45,168
42,174
39,311
36,587
34,006
31,573
29,292
27,164
25,192
23,376
21,715
20,209
18,856
17,653
16,596
15,681
14,903
14,254
13,728
13,318
13,016
12,813
12,7
12,669
12,712
12,818
12,98
13,187
13,432
13,703
13,994
14,294
14,597
14,894
15,179
15,444
15,685
15,897
16,075
16,214
16,312
16,366
16,372
16,327
16,231
16,081
15,877
15,618
15,304
14,936
14,516
14,046
13,526
12,961
12,352
11,703
11,017
10,298
9,548
8,773
7,976
7,161
6,333
5,494
4,65
3,804
2,96
2,121
1,289
0,469
-0,337
-1,126
-1,895
-2,641
-3,361
-4,05
-4,707
-5,328
-5,91
-6,449
-6,942
-7,387
-7,781
-8,122
-8,406
-8,633
-8,8
-8,907
-8,952
-8,935
-8,855
-8,712
-8,507
-8,239
-7,909
-7,517
-7,063
-6,55
-5,977
-5,346
-4,659
-3,917
-3,122
-2,277
-1,384
-0,446
0,534
1,554
2,609
3,694
4,806
5,939
7,087
8,246
9,408
10,567
11,717
12,851
13,966
15,055
16,113
17,135
18,118
19,056
19,947
20,786
21,567
22,287
22,942
23,53
24,046
24,489
24,857
25,148
25,361
25,496
25,552
25,526
25,418
25,224
24,944
24,577
24,125
23,585
22,957
22,248
21,458
20,602
19,7
18,7
17,565
16,298
14,876
13,642
12,817
12,192
11,53
9,422
5,24
-0,271
-5,784
-6,11
-2,829
6,27
38,806
51,347
-34,747
-141,881
-98,221
61,192
115,803
8,831
-83,982
-68,525
-30,828
-25,318
-27,319
-28,316
-32,945
-37,672
-41,133
-43,508
-45,277
-47,285
-49,434
-51,605
-53,746
-55,707
-57,467
-59,022
-60,343
-61,418
-62,224
-62,719
-62,874
-62,66
-62,039
-60,98
-59,441
-57,366
-54,775
-51,762
-48,452
-45,053
-41,734
-38,552
-35,65
-33,185
-31,146
-29,508
-28,1
-26,447
-24,201
-21,206
-17,078
-11,671
-5,282
1,887
9,095
14,984
18,418
18,372
13,817
4,364
-9,175
-25,551
-43,079
-56,358
-59,579
-50,455
-24,991
10,9
45,816
83,243
125,845
187,806
291,767
427,257
570,469
685,616
724,899
675,731
553,159
384,416
213,472
72,244
-29,171
-86,665
-109,356
-114,288
-109,985
-104,204
-99,429
-89,659
-73,35
-51,484
-27,349
-7,562
4,686
9,282
7,664
2,618
-3,847
-10,265
-15,316
-18,301
-18,875
-17,179
-13,9
-9,792
-5,624
-2,156
0,197
1,294
1,13
-0,114
-2,223
-4,988
-8,123
-11,317
-14,35
-17,114
-19,58
-21,759
-23,628
-25,118
-26,181
-26,808
-27,019
-26,839
-26,277
-25,336
-24,028
-22,408
-20,55
-18,535
-16,438
-14,302
-12,156
-10,029
-7,947
-5,932
-4,001
-2,152
-0,375
1,332
2,964
4,517
5,984
7,372
8,693
9,955
11,172
12,351
13,502
14,632
15,752
16,864
17,971
19,073
20,167
21,254
22,337
23,418
24,503
25,596
26,704
27,831
28,987
30,176
31,405
32,678
34
35,377
36,813
38,313
39,883
41,528
43,252
45,06
46,955
48,942
51,021
53,195
55,463
57,826
60,281
62,827
65,46
68,179
70,982
73,864
76,824
79,856
82,957
86,122
89,346
92,623
95,946
99,306
102,694
106,102
109,52
112,937
116,342
119,724
123,07
126,368
129,606
132,769
135,844
138,818
141,677
144,407
146,997
149,433
151,703
153,796
155,7
157,406
158,904
160,183
161,235
162,051
162,624
162,946
163,01
162,811
162,344
161,605
160,591
159,302
157,737
155,897
153,786
151,407
148,766
145,869
142,724
139,34
135,727
131,896
127,86
123,63
119,222
114,649
109,925
105,067
100,089
95,008
89,838
84,596
79,298
73,958
68,594
63,219
57,849
52,501
47,187
41,922
36,72
31,594
26,555
21,614
16,783
12,068
7,479
3,021
-1,298
-5,475
-9,506
-13,388
-17,12
-20,701
-24,13
-27,41
-30,541
-33,527
-36,372
-39,078
-41,65
-44,094
-46,413
-48,614
-50,702
-52,682
-54,561
-56,343
-58,037
-59,646
-61,179
-62,64
-64,036
-65,371
-66,652
-67,883
-69,067
-70,209
-71,312
-72,379
-73,413
-74,417
-75,391
-76,338
-77,259
-78,155
-79,026
-79,874
-80,697
-81,495
-82,268
-83,016
-83,737
-84,432
-85,101
-85,741
-86,354
-86,94
-87,497
-88,026
-88,528
-89,001
-89,447
-89,866
-90,26
-90,628
-90,974
-91,299
-91,605
-91,894
-92,169
-92,433
-92,687
-92,934
-93,178
-93,419
-93,661
-93,906
-94,156
-94,414
-94,682
-94,961
-95,254
-95,562
-95,886
-96,226
-96,584
-96,959
-97,352
-97,761
-98,187
-98,627
-99,08
-99,545
-100,019
-100,499
-100,981
-101,461
-101,935
-102,398
-102,845
-103,269
-103,666
-104,031
-104,357
-104,64
-104,875
-105,058
-105,183
-105,247
-105,246
-105,175
-105,031
-104,812
-104,515
-104,139
-103,681
-103,141
-102,518
-101,814
-101,027
-100,159
-99,211
-98,185
-97,082
-95,906
-94,66
-93,349
-91,979
-90,555
-89,085
-87,578
-86,042
-84,486
-82,919
-81,348
-79,784
-78,235
-76,709
-75,213
-73,754
-72,341
-70,98
-69,678
-68,442
-67,278
-66,19
-65,183
-64,261
-63,428
-62,686
-62,038
-61,485
-61,029
-60,674
-60,421
-60,273
-60,231
-60,295
-60,465
-60,738
-61,112
-61,583
-62,144
-62,79
-63,513
-64,307
-65,167
-66,088
-67,068
-68,103
-69,194
-70,337
-71,532
-72,776
-74,064
-75,392
-76,752
-78,136
-79,537
-80,952
-82,373
-83,801
-85,233
-86,667
-88,098
-89,521
-90,928
-92,315
-93,674
-94,99
-96,254
-97,467
-98,637
-99,789
-100,947
-102,11
-103,282
-104,462
-105,637
-106,8
-107,925
-108,948
-109,812
-110,458
-110,836
-110,942
-110,77
-110,282
-109,438
-108,177
-106,459
-104,322
-101,798
-98,891
-95,621
-91,979
-88,029
-83,982
-80,034
-76,391
-73,235
-70,61
-68,625
-67,495
-67,292
-67,982
-69,318
-70,691
-71,592
-71,729
-70,679
-68,171
-64,187
-58,77
-52,674
-47,234
-43,594
-42,99
-46,419
-53,907
-64,812
-77,62
-89,444
-97,198
-97,321
-85,431
-58,075
-12,871
48,985
122,315
200,787
279,63
360,005
445,031
540,048
632,333
676,436
678,249
686,808
625,441
363,042
-1,954
-199,705
-159,506
-60,111
-19,917
-2,54
19,068
23,204
12,412
7,291
11,36
19,93
28,206
31,018
27,67
20,459
11,989
4,734
-0,225
-2,928
-3,562
-2,46
-0,102
3,03
6,202
8,598
9,777
9,581
8,02
5,261
1,434
-3,372
-8,939
-14,988
-21,255
-27,475
-33,509
-39,315
-44,829
-49,984
-54,704
-58,906
-62,571
-65,727
-68,382
-70,539
-72,193
-73,332
-73,996
-74,254
-74,182
-73,866
-73,363
-72,705
-71,931
-71,071
-70,149
-69,188
-68,186
-67,126
-66,004
-64,826
-63,6
-62,34
-61,046
-59,713
-58,336
-56,912
-55,439
-53,917
-52,342
-50,711
-49,024
-47,289
-45,516
-43,716
-41,896
-40,056
-38,192
-36,312
-34,427
-32,514
-30,554
-28,528
-26,412
-24,223
-21,999
-19,706
-17,311
-14,887
-12,49
-10,161
-7,97
-5,856
-3,701
-1,566
0,434
2,604
5,305
8,322
11,677
15,436
18,827
23,93
32,769
42,449
52,09
56,374
48,935
36,811
24,691
19,559
31,008
50,538
70,941
87,274
91,376
89,063
86,233
84,187
86,512
91,106
95,268
99,495
103,431
107,242
111,455
115,7
119,675
123,46
127,06
130,427
133,555
136,449
139,106
141,566
143,876
145,999
147,898
149,573
151,01
152,2
153,139
153,811
154,203
154,311
154,133
153,666
152,908
151,855
150,508
148,865
146,93
144,705
142,195
139,405
136,343
133,016
129,433
125,605
121,543
117,259
112,766
108,077
103,207
98,172
92,986
87,667
82,232
76,698
71,083
65,407
59,687
53,944
48,195
42,459
36,756
31,104
25,521
20,025
14,633
9,362
4,228
-0,755
-5,573
-10,214
-14,665
-18,918
-22,963
-26,792
-30,399
-33,778
-36,925
-39,838
-42,514
-44,953
-47,154
-49,121
-50,854
-52,359
-53,639
-54,701
-55,55
-56,193
-56,64
-56,898
-56,977
-56,888
-56,641
-56,248
-55,722
-55,074
-54,317
-53,465
-52,528
-51,521
-50,454
-49,339
-48,189
-47,012
-45,82
-44,622
-43,427
-42,244
-41,08
-39,943
-38,838
-37,772
-36,749
-35,773
-34,849
-33,979
-33,167
-32,413
-31,721
-31,091
-30,524
-30,018
-29,575
-29,191
-28,865
-28,594
-28,374
-28,201
-28,071
-27,979
-27,921
-27,893
-27,889
-27,905
-27,936
-27,978
-28,027
-28,079
-28,13
-28,178
-28,219
-28,252
-28,276
-28,288
-28,288
-28,274
-28,248
-28,206
-28,151
-28,08
-27,995
-27,895
-27,782
-27,656
-27,518
-27,371
-27,217
-27,059
-26,899
-26,741
-26,588
-26,443
-26,311
-26,194
-26,096
-26,022
-25,973
-25,954
-25,967
-26,013
-26,096
-26,214
-26,369
-26,561
-26,787
-27,047
-27,338
-27,66
-28,01
-28,386
-28,785
-29,206
-29,645
-30,099
-30,564
-31,038
-31,514
-31,991
-32,461
-32,922
-33,368
-33,795
-34,197
-34,57
-34,909
-35,208
-35,463
-35,668
-35,818
-35,909
-35,937
-35,9
-35,795
-35,621
-35,379
-35,069
-34,694
-34,255
-33,756
-33,198
-32,585
-31,92
-31,206
-30,447
-29,647
-28,812
-27,946
-27,056
-26,147
-25,227
-24,302
-23,378
-22,462
-21,559
-20,676
-19,821
-18,998
-18,215
-17,479
-16,798
-16,18
-15,633
-15,165
-14,78
-14,484
-14,281
-14,174
-14,164
-14,252
-14,439
-14,726
-15,112
-15,6
-16,195
-16,899
-17,716
-18,648
-19,696
-20,862
-22,143
-23,537
-25,037
-26,632
-28,318
-30,087
-31,936
-33,861
-35,86
-37,927
-40,059
-42,247
-44,485
-46,764
-49,073
-51,399
-53,727
-56,053
-58,38
-60,726
-63,106
-65,52
-67,961
-70,416
-72,868
-75,292
-77,652
-79,893
-81,953
-83,771
-85,294
-86,492
-87,35
-87,849
-87,953
-87,605
-86,761
-85,426
-83,647
-81,473
-78,954
-76,129
-73,059
-69,888
-66,816
-64,046
-61,771
-60,127
-59,169
-58,988
-59,751
-61,51
-64,164
-67,409
-70,706
-73,583
-75,745
-76,923
-76,829
-75,418
-72,861
-69,666
-66,739
-64,889
-64,882
-67,136
-71,479
-77,067
-82,359
-85,357
-84,101
-76,309
-58,533
-27,984
16,803
73,915
136,898
199,492
259,627
323,472
400,591
495,409
599,195
682,439
710,899
660,341
527,715
343,612
152,829
-1,694
-92,533
-122,033
-109,525
-82,983
-64,476
-58,955
-62,526
-64,055
-56,024
-40,721
-22,955
-8,931
-2,27
-1,939
-5,7
-11,638
-18,111
-23,731
-27,796
-29,782
-29,466
-27,332
-23,987
-19,943
-15,873
-12,451
-10,006
-8,714
-8,577
-9,382
-10,966
-13,15
-15,672
-18,265
-20,701
-22,862
-24,711
-26,25
-27,461
-28,279
-28,659
-28,596
-28,116
-27,242
-25,989
-24,359
-22,363
-20,064
-17,539
-14,87
-12,144
-9,413
-6,711
-4,079
-1,545
0,866
3,134
5,256
7,244
9,097
10,809
12,376
13,79
15,059
16,195
17,208
18,113
18,921
19,642
20,287
20,867
21,388
21,855
22,273
22,643
22,97
23,263
23,529
23,78
24,027
24,28
24,552
24,855
25,197
25,59
26,041
26,559
27,151
27,825
28,588
29,446
30,407
31,476
32,659
33,961
35,384
36,931
38,605
40,404
42,329
44,379
46,551
48,844
51,255
53,781
56,418
59,161
62,005
64,942
67,966
71,068
74,24
77,47
80,75
84,068
87,416
90,782
94,157
97,528
100,885
104,216
107,51
110,753
113,934
117,039
120,056
122,972
125,776
128,457
131,002
133,4
135,642
137,716
139,611
141,318
142,827
144,127
145,211
146,07
146,697
147,087
147,234
147,135
146,787
146,186
145,332
144,223
142,859
141,24
139,369
137,249
134,884
132,279
129,443
126,383
123,108
119,63
115,958
112,106
108,084
103,906
99,586
95,138
90,576
85,917
81,178
76,375
71,525
66,646
61,756
56,871
52,008
47,183
42,413
37,713
33,097
28,582
24,182
19,91
15,78
11,804
7,995
4,361
0,911
-2,346
-5,406
-8,264
-10,916
-13,361
-15,596
-17,623
-19,441
-21,053
-22,462
-23,672
-24,688
-25,518
-26,168
-26,648
-26,968
-27,136
-27,164
-27,063
-26,843
-26,516
-26,094
-25,588
-25,01
-24,374
-23,69
-22,972
-22,232
-21,482
-20,732
-19,993
-19,275
-18,584
-17,93
-17,319
-16,756
-16,246
-15,793
-15,402
-15,073
-14,809
-14,611
-14,478
-14,409
-14,401
-14,452
-14,556
-14,711
-14,909
-15,148
-15,419
-15,719
-16,039
-16,375
-16,719
-17,063
-17,402
-17,727
-18,032
-18,309
-18,553
-18,758
-18,919
-19,032
-19,094
-19,103
-19,057
-18,956
-18,799
-18,588
-18,324
-18,009
-17,647
-17,241
-16,797
-16,32
-15,816
-15,293
-14,759
-14,22
-13,686
-13,164
-12,664
-12,192
-11,759
-11,371
-11,038
-10,769
-10,571
-10,451
-10,418
-10,477
-10,634
-10,893
-11,258
-11,73
-12,309
-12,996
-13,789
-14,684
-15,68
-16,77
-17,951
-19,214
-20,554
-21,961
-23,427
-24,941
-26,491
-28,067
-29,657
-31,249
-32,83
-34,39
-35,915
-37,394
-38,815
-40,166
-41,434
-42,608
-43,676
-44,628
-45,453
-46,143
-46,691
-47,092
-47,341
-47,435
-47,375
-47,161
-46,792
-46,274
-45,608
-44,8
-43,856
-42,782
-41,587
-40,281
-38,873
-37,376
-35,803
-34,165
-32,475
-30,745
-28,99
-27,219
-25,448
-23,688
-21,952
-20,256
-18,614
-17,041
-15,553
-14,164
-12,889
-11,739
-10,727
-9,861
-9,15
-8,601
-8,218
-8,008
-7,973
-8,119
-8,449
-8,966
-9,672
-10,569
-11,66
-12,943
-14,414
-16,07
-17,903
-19,904
-22,066
-24,38
-26,838
-29,431
-32,151
-34,991
-37,941
-40,988
-44,117
-47,307
-50,536
-53,785
-57,031
-60,256
-63,445
-66,59
-69,691
-72,752
-75,783
-78,792
-81,771
-84,71
-87,589
-90,373
-93,032
-95,534
-97,836
-99,908
-101,737
-103,308
-104,619
-105,658
-106,386
-106,757
-106,719
-106,21
-105,203
-103,68
-101,61
-99,048
-96,074
-92,778
-89,339
-85,897
-82,496
-79,258
-76,308
-73,592
-71,056
-68,5
-65,473
-61,715
-57,03
-51,035
-43,59
-34,888
-25,294
-15,895
-8,177
-3,258
-2,38
-6,674
-16,282
-30,543
-48,016
-65,772
-80,139
-87,307
-82,703
-61,962
-24,657
25,52
84,447
146,922
214,748
297,2
394,23
497,564
584,891
620,462
585,765
482,007
329,451
168,382
28,496
-77,723
-148,908
-198,03
-235,767
-260,145
-265,419
-243,76
-187,873
-107,662
-23,24
47,154
83,104
82,146
58,886
26,436
1,24
-10,671
-16,948
-22,04
-29,648
-39,809
-46,646
-47,992
-44,989
-39,56
-34,448
-30,768
-28,199
-26,711
-26,575
-27,886
-30,299
-33,024
-35,402
-37,202
-38,498
-39,476
-40,134
-40,354
-40,135
-39,574
-38,764
-37,775
-36,595
-35,149
-33,429
-31,49
-29,405
-27,273
-25,152
-23,053
-20,99
-18,975
-17,017
-15,138
-13,344
-11,625
-9,986
-8,441
-6,999
-5,684
-4,505
-3,456
-2,529
-1,709
-0,983
-0,346
0,209
0,689
1,098
1,441
1,718
1,93
2,077
2,167
2,206
2,205
2,171
2,114
2,044
1,969
1,898
1,841
1,803
1,793
1,819
1,889
2,011
2,193
2,443
2,771
3,184
3,69
4,296
5,01
5,836
6,781
7,851
9,047
10,374
11,835
13,43
15,163
17,034
19,044
21,193
23,48
25,904
28,463
31,153
33,972
36,913
39,972
43,143
46,418
49,791
53,254
56,798
60,414
64,092
67,82
71,589
75,384
79,195
83,006
86,805
90,577
94,309
97,985
101,592
105,114
108,537
111,847
115,029
118,07
120,955
123,67
126,201
128,537
130,665
132,573
134,249
135,684
136,867
137,792
138,45
138,834
138,94
138,763
138,3
137,549
136,51
135,182
133,57
131,676
129,505
127,063
124,359
121,4
118,197
114,76
111,101
107,233
103,169
98,925
94,515
89,956
85,266
80,46
75,557
70,576
65,535
60,452
55,346
50,235
45,138
40,073
35,057
30,109
25,245
20,483
15,837
11,323
6,955
2,745
-1,294
-5,151
-8,818
-12,285
-15,545
-18,592
-21,42
-24,026
-26,406
-28,559
-30,485
-32,183
-33,656
-34,908
-35,942
-36,764
-37,38
-37,797
-38,022
-38,063
-37,93
-37,631
-37,177
-36,578
-35,847
-34,994
-34,032
-32,973
-31,83
-30,614
-29,338
-28,012
-26,65
-25,262
-23,859
-22,452
-21,051
-19,669
-18,319
-17,011
-15,745
-14,524
-13,352
-12,236
-11,191
-10,219
-9,301
-8,453
-7,717
-7,125
-6,718
-6,496
-6,398
-6,418
-6,619
-6,954
-7,28
-7,491
-7,462
-7,18
-6,823
-6,436
-5,827
-5,193
-5,225
-6,053
-7,474
-9,574
-11,593
-14,953
-23,936
-37,524
-51,811
-60,22
-50,516
-23,683
8,072
32,497
32,208
6,437
-28,432
-59,756
-73,781
-68,363
-55,758
-43,406
-36,479
-36,425
-38,226
-39,664
-40,887
-41,723
-42,928
-44,667
-46,26
-47,508
-48,518
-49,27
-49,727
-49,915
-49,859
-49,622
-49,319
-48,983
-48,562
-48,041
-47,429
-46,725
-45,941
-45,076
-44,121
-43,076
-41,955
-40,766
-39,518
-38,22
-36,878
-35,499
-34,094
-32,671
-31,242
-29,817
-28,405
-27,018
-25,664
-24,353
-23,096
-21,9
-20,774
-19,724
-18,759
-17,886
-17,113
-16,444
-15,887
-15,447
-15,126
-14,929
-14,859
-14,917
-15,103
-15,417
-15,857
-16,423
-17,115
-17,931
-18,87
-19,929
-21,105
-22,395
-23,793
-25,294
-26,891
-28,576
-30,341
-32,18
-34,087
-36,057
-38,085
-40,171
-42,313
-44,509
-46,756
-49,052
-51,391
-53,766
-56,169
-58,588
-61,015
-63,441
-65,864
-68,283
-70,7
-73,113
-75,52
-77,917
-80,298
-82,659
-84,99
-87,273
-89,496
-91,651
-93,745
-95,803
-97,848
-99,883
-101,905
-103,904
-105,865
-107,777
-109,611
-111,309
-112,81
-114,057
-115,014
-115,692
-116,099
-116,221
-116,028
-115,467
-114,493
-113,125
-111,396
-109,312
-106,894
-104,144
-101,097
-97,885
-94,676
-91,641
-88,922
-86,595
-84,699
-83,317
-82,603
-82,63
-83,307
-84,288
-85,011
-84,895
-83,494
-80,625
-76,074
-69,809
-62,275
-54,237
-47,111
-42,812
-42,779
-47,344
-56,246
-68,415
-81,695
-93,497
-100,017
-96,037
-76,727
-41,727
5,502
61,822
122,477
190,27
276,149
379,432
493,162
599,061
658,573
648,645
565,031
416,891
246,137
94,04
-16,824
-70,859
-80,731
-71,438
-56,765
-50,369
-52,994
-54,585
-52,603
-45,425
-34,813
-27,711
-26,488
-30,561
-38,672
-47,588
-54,973
-60,285
-63,018
-62,953
-60,409
-55,731
-49,493
-42,625
-36,047
-30,266
-25,565
-22,068
-19,676
-18,339
-18,014
-18,547
-19,746
-21,419
-23,376
-25,465
-27,571
-29,587
-31,419
-32,978
-34,174
-34,953
-35,297
-35,204
-34,69
-33,764
-32,425
-30,69
-28,595
-26,202
-23,583
-20,818
-17,987
-15,158
-12,383
-9,708
-7,171
-4,793
-2,584
-0,543
1,34
3,066
4,632
6,034
7,27
8,347
9,272
10,058
10,719
11,269
11,72
12,084
12,371
12,589
12,744
12,841
12,882
12,875
12,827
12,752
12,662
12,573
12,499
12,453
12,451
12,507
12,634
12,844
13,147
13,555
14,078
14,726
15,509
16,436
17,516
18,756
20,161
21,737
23,489
25,418
27,528
29,818
32,29
34,941
37,771
40,778
43,958
47,306
50,815
54,48
58,29
62,236
66,307
70,49
74,771
79,138
83,574
88,064
92,592
97,141
101,694
106,233
110,741
115,197
119,585
123,886
128,081
132,152
136,083
139,855
143,452
146,858
150,054
153,027
155,759
158,237
160,445
162,37
164
165,323
166,329
167,009
167,357
167,366
167,031
166,35
165,321
163,943
162,218
160,149
157,74
154,999
151,934
148,555
144,872
140,9
136,653
132,144
127,39
122,408
117,215
111,83
106,272
100,562
94,721
88,769
82,731
76,628
70,484
64,321
58,162
52,03
45,946
39,932
34,008
28,196
22,514
16,982
11,617
6,435
1,451
-3,32
-7,868
-12,183
-16,257
-20,083
-23,656
-26,974
-30,035
-32,837
-35,383
-37,673
-39,712
-41,505
-43,057
-44,377
-45,473
-46,356
-47,038
-47,53
-47,845
-47,998
-48,001
-47,87
-47,619
-47,264
-46,819
-46,301
-45,725
-45,108
-44,463
-43,806
-43,15
-42,509
-41,895
-41,317
-40,786
-40,31
-39,896
-39,553
-39,284
-39,096
-38,991
-38,973
-39,044
-39,204
-39,453
-39,789
-40,21
-40,712
-41,291
-41,943
-42,662
-43,443
-44,278
-45,162
-46,086
-47,044
-48,025
-49,023
-50,028
-51,031
-52,023
-52,996
-53,942
-54,854
-55,724
-56,547
-57,317
-58,029
-58,679
-59,263
-59,776
-60,218
-60,585
-60,876
-61,091
-61,23
-61,293
-61,282
-61,2
-61,048
-60,83
-60,549
-60,21
-59,815
-59,371
-58,882
-58,354
-57,794
-57,206
-56,6
-55,981
-55,358
-54,736
-54,124
-53,527
-52,951
-52,404
-51,89
-51,415
-50,983
-50,599
-50,267
-49,991
-49,774
-49,619
-49,527
-49,5
-49,539
-49,645
-49,816
-50,053
-50,355
-50,72
-51,147
-51,633
-52,175
-52,77
-53,413
-54,099
-54,824
-55,58
-56,361
-57,16
-57,969
-58,781
-59,587
-60,38
-61,151
-61,894
-62,599
-63,26
-63,868
-64,417
-64,899
-65,308
-65,638
-65,882
-66,036
-66,096
-66,056
-65,914
-65,666
-65,31
-64,842
-64,262
-63,567
-62,757
-61,832
-60,792
-59,641
-58,381
-57,016
-55,551
-53,992
-52,346
-50,62
-48,824
-46,965
-45,054
-43,1
-41,113
-39,104
-37,082
-35,059
-33,045
-31,051
-29,088
-27,165
-25,294
-23,483
-21,741
-20,078
-18,502
-17,02
-15,64
-14,369
-13,215
-12,184
-11,284
-10,52
-9,899
-9,424
-9,1
-8,929
-8,911
-9,046
-9,333
-9,769
-10,35
-11,075
-11,941
-12,947
-14,091
-15,371
-16,784
-18,327
-19,997
-21,786
-23,685
-25,684
-27,771
-29,938
-32,175
-34,473
-36,822
-39,212
-41,635
-44,079
-46,533
-48,981
-51,408
-53,803
-56,15
-58,442
-60,676
-62,854
-64,992
-67,099
-69,178
-71,231
-73,26
-75,255
-77,208
-79,1
-80,894
-82,552
-84,032
-85,289
-86,295
-87,019
-87,427
-87,474
-87,099
-86,271
-84,987
-83,255
-81,079
-78,438
-75,326
-71,806
-68,01
-64,111
-60,313
-56,765
-53,636
-51,198
-49,574
-48,766
-48,642
-48,7
-48,407
-47,449
-45,395
-41,805
-36,835
-30,928
-24,974
-20,802
-19,975
-23,477
-32,482
-47,639
-68,129
-92,317
-117,328
-138,532
-151,698
-153,262
-139,266
-106,81
-55,312
14,318
99,16
193,548
291,308
386,049
470,118
536,371
579,891
597,084
585,993
547,878
485,9
404,641
311,071
213,007
117,078
29,732
-42,785
-96,91
-131,292
-146,17
-144,328
-129,931
-106,739
-79,166
-52,296
-29,455
-12,556
-2,625
1,016
-0,164
-4,941
-11,503
-17,597
-22,013
-24,139
-23,701
-21,226
-17,383
-12,684
-7,918
-3,927
-1,086
0,445
0,674
-0,129
-1,76
-4,045
-6,706
-9,465
-12,115
-14,527
-16,661
-18,521
-20,066
-21,241
-22,012
-22,368
-22,335
-21,935
-21,182
-20,091
-18,689
-17,034
-15,195
-13,244
-11,251
-9,266
-7,321
-5,446
-3,665
-1,995
-0,446
0,983
2,304
3,522
4,639
5,658
6,579
7,413
8,172
8,867
9,514
10,125
10,708
11,275
11,831
12,381
12,929
13,477
14,025
14,573
15,127
15,69
16,269
16,872
17,505
18,174
18,888
19,653
20,474
21,358
22,309
23,331
24,43
25,609
26,874
28,229
29,678
31,223
32,869
34,617
36,469
38,428
40,493
42,666
44,945
47,331
49,823
52,419
55,119
57,92
60,819
63,813
66,898
70,068
73,319
76,643
80,033
83,48
86,976
90,511
94,074
97,654
101,239
104,818
108,378
111,905
115,386
118,808
122,157
125,419
128,579
131,624
134,539
137,31
139,923
142,365
144,623
146,683
148,533
150,161
151,556
152,706
153,602
154,233
154,593
154,673
154,467
153,97
153,179
152,092
150,708
149,028
147,056
144,794
142,248
139,425
136,333
132,981
129,379
125,54
121,477
117,202
112,731
108,08
103,263
98,299
93,204
87,997
82,694
77,315
71,878
66,401
60,904
55,405
49,923
44,477
39,084
33,763
28,529
23,4
18,39
13,512
8,78
4,204
-0,204
-4,435
-8,483
-12,339
-15,999
-19,46
-22,717
-25,769
-28,617
-31,262
-33,704
-35,948
-37,996
-39,854
-41,526
-43,017
-44,335
-45,486
-46,477
-47,318
-48,016
-48,582
-49,026
-49,357
-49,586
-49,724
-49,782
-49,768
-49,693
-49,567
-49,399
-49,197
-48,97
-48,727
-48,474
-48,219
-47,966
-47,722
-47,491
-47,277
-47,081
-46,907
-46,757
-46,63
-46,53
-46,456
-46,409
-46,389
-46,397
-46,431
-46,491
-46,576
-46,682
-46,809
-46,953
-47,112
-47,283
-47,461
-47,645
-47,831
-48,015
-48,195
-48,366
-48,525
-48,669
-48,794
-48,897
-48,974
-49,025
-49,046
-49,037
-48,996
-48,923
-48,818
-48,681
-48,511
-48,31
-48,077
-47,812
-47,516
-47,19
-46,835
-46,451
-46,04
-45,604
-45,144
-44,663
-44,163
-43,646
-43,114
-42,57
-42,017
-41,458
-40,897
-40,337
-39,782
-39,238
-38,708
-38,197
-37,71
-37,25
-36,821
-36,428
-36,072
-35,758
-35,488
-35,264
-35,09
-34,966
-34,896
-34,88
-34,921
-35,018
-35,173
-35,386
-35,656
-35,983
-36,366
-36,804
-37,295
-37,837
-38,428
-39,066
-39,746
-40,464
-41,215
-41,994
-42,793
-43,608
-44,428
-45,249
-46,06
-46,856
-47,627
-48,366
-49,065
-49,715
-50,31
-50,84
-51,298
-51,679
-51,975
-52,18
-52,289
-52,298
-52,204
-52,002
-51,691
-51,267
-50,729
-50,077
-49,308
-48,425
-47,428
-46,319
-45,102
-43,782
-42,364
-40,855
-39,262
-37,594
-35,859
-34,066
-32,226
-30,347
-28,44
-26,517
-24,588
-22,667
-20,765
-18,895
-17,069
-15,297
-13,59
-11,958
-10,41
-8,955
-7,598
-6,347
-5,209
-4,191
-3,3
-2,541
-1,921
-1,442
-1,11
-0,926
-0,891
-1,003
-1,261
-1,663
-2,205
-2,885
-3,701
-4,651
-5,735
-6,953
-8,3
-9,774
-11,37
-13,08
-14,896
-16,806
-18,799
-20,864
-22,992
-25,177
-27,414
-29,702
-32,032
-34,402
-36,803
-39,225
-41,662
-44,105
-46,54
-48,956
-51,346
-53,714
-56,076
-58,448
-60,828
-63,208
-65,579
-67,922
-70,228
-72,48
-74,63
-76,635
-78,446
-80,019
-81,344
-82,42
-83,23
-83,746
-83,922
-83,722
-83,164
-82,303
-81,166
-79,78
-78,147
-76,273
-74,27
-72,286
-70,48
-69,014
-68,001
-67,479
-67,537
-68,349
-69,907
-72,059
-74,464
-76,519
-77,744
-77,916
-76,852
-74,329
-70,554
-65,98
-61,193
-57,391
-55,573
-56,258
-59,908
-66,473
-74,732
-83,061
-89,796
-92,237
-87,903
-74,604
-49,675
-11,834
38,159
98,824
167,834
241,04
314,026
381,488
436,446
473,484
489,08
480,588
447,658
392,488
318,393
231,047
138,659
48,689
-31,951
-96,977
-142,973
-168,773
-174,649
-163,475
-140,07
-109,275
-76,472
-46,625
-22,567
-5,918
2,779
4,582
1,184
-5,556
-13,229
-19,896
-24,652
-27,003
-27,054
-25,476
-22,886
-20,013
-17,742
-16,53
-16,502
-17,667
-19,784
-22,554
-25,755
-29,064
-32,164
-34,925
-37,282
-39,221
-40,781
-41,926
-42,617
-42,864
-42,675
-42,068
-41,071
-39,69
-37,943
-35,893
-33,608
-31,167
-28,651
-26,1
-23,541
-21
-18,496
-16,05
-13,679
-11,383
-9,161
-7,018
-4,962
-3,002
-1,147
0,607
2,268
3,843
5,341
6,769
8,133
9,439
10,692
11,893
13,044
14,145
15,195
16,195
17,151
18,067
18,951
19,81
20,652
21,484
22,315
23,152
24,001
24,87
25,765
26,692
27,66
28,674
29,745
30,878
32,083
33,365
34,732
36,189
37,74
39,391
41,144
43,003
44,971
47,048
49,236
51,536
53,949
56,473
59,108
61,851
64,699
67,648
70,694
73,832
77,055
80,357
83,732
87,172
90,669
94,214
97,797
101,408
105,036
108,668
112,292
115,896
119,464
122,985
126,444
129,827
133,12
136,309
139,379
142,315
145,103
147,728
150,176
152,434
154,488
156,325
157,934
159,304
160,425
161,286
161,879
162,195
162,228
161,97
161,416
160,564
159,409
157,951
156,19
154,128
151,768
149,114
146,172
142,949
139,451
135,689
131,673
127,415
122,927
118,224
113,321
108,234
102,982
97,581
92,05
86,409
80,675
74,869
69,01
63,117
57,21
51,31
45,436
39,606
33,842
28,16
22,579
17,116
11,788
6,608
1,593
-3,245
-7,893
-12,339
-16,571
-20,581
-24,358
-27,895
-31,186
-34,227
-37,013
-39,543
-41,816
-43,833
-45,597
-47,109
-48,374
-49,397
-50,184
-50,74
-51,075
-51,196
-51,114
-50,838
-50,379
-49,749
-48,96
-48,023
-46,95
-45,754
-44,446
-43,04
-41,549
-39,985
-38,362
-36,693
-34,993
-33,274
-31,55
-29,834
-28,138
-26,474
-24,852
-23,282
-21,774
-20,337
-18,978
-17,704
-16,522
-15,438
-14,456
-13,581
-12,815
-12,159
-11,615
-11,182
-10,86
-10,646
-10,54
-10,539
-10,639
-10,837
-11,128
-11,509
-11,971
-12,509
-13,114
-13,779
-14,493
-15,247
-16,031
-16,834
-17,646
-18,458
-19,258
-20,037
-20,786
-21,495
-22,155
-22,757
-23,293
-23,754
-24,134
-24,427
-24,628
-24,733
-24,739
-24,644
-24,447
-24,147
-23,743
-23,237
-22,628
-21,918
-21,11
-20,207
-19,213
-18,134
-16,977
-15,749
-14,461
-13,121
-11,738
-10,324
-8,888
-7,441
-5,992
-4,553
-3,133
-1,743
-0,394
0,905
2,141
3,306
4,39
5,383
6,279
7,073
7,759
8,333
8,793
9,136
9,359
9,46
9,434
9,281
8,998
8,584
8,039
7,364
6,562
5,637
4,595
3,439
2,175
0,807
-0,66
-2,222
-3,876
-5,621
-7,453
-9,371
-11,369
-13,442
-15,584
-17,789
-20,048
-22,354
-24,697
-27,071
-29,472
-31,897
-34,348
-36,827
-39,334
-41,872
-44,435
-47,019
-49,62
-52,228
-54,829
-57,412
-59,971
-62,509
-65,045
-67,588
-70,139
-72,702
-75,262
-77,797
-80,267
-82,61
-84,758
-86,662
-88,275
-89,573
-90,57
-91,269
-91,686
-91,835
-91,68
-91,194
-90,368
-89,169
-87,594
-85,679
-83,498
-81,195
-78,958
-76,923
-75,193
-73,838
-72,883
-72,336
-72,157
-72,249
-72,55
-73,04
-73,799
-74,935
-76,294
-77,594
-78,44
-78,381
-77,223
-74,763
-70,463
-63,933
-55,557
-46,055
-36,573
-28,275
-20,973
-14,364
-8,927
-4,074
2,391
12,705
30,244
56,186
86,273
119,843
159,178
207,943
273,455
348,993
415,814
455,03
447,538
396,063
318,371
228,309
140,449
53,216
-37,272
-119,746
-183,086
-210,244
-195,166
-153,832
-103,146
-61,155
-36,257
-21,922
-13,449
-7,416
-3,112
-4,28
-11,112
-21,36
-32,696
-42,468
-49,639
-54,32
-56,567
-56,731
-55,417
-53,415
-51,679
-50,722
-50,616
-51,299
-52,588
-54,349
-56,49
-58,75
-60,817
-62,546
-63,883
-64,857
-65,568
-66,036
-66,243
-66,197
-65,884
-65,303
-64,476
-63,394
-62,049
-60,459
-58,65
-56,68
-54,635
-52,57
-50,512
-48,484
-46,491
-44,543
-42,659
-40,84
-39,082
-37,389
-35,763
-34,213
-32,752
-31,385
-30,109
-28,919
-27,797
-26,732
-25,715
-24,734
-23,781
-22,848
-21,928
-21,019
-20,121
-19,234
-18,352
-17,472
-16,586
-15,685
-14,763
-13,813
-12,825
-11,79
-10,703
-9,556
-8,345
-7,063
-5,703
-4,26
-2,726
-1,095
0,639
2,483
4,443
6,523
8,728
11,061
13,524
16,118
18,843
21,698
24,682
27,793
31,029
34,386
37,863
41,454
45,155
48,961
52,864
56,859
60,936
65,086
69,3
73,567
77,876
82,215
86,571
90,931
95,28
99,602
103,883
108,104
112,249
116,299
120,238
124,046
127,708
131,205
134,52
137,636
140,537
143,208
145,632
147,797
149,687
151,291
152,596
153,593
154,272
154,625
154,645
154,326
153,663
152,653
151,295
149,588
147,534
145,136
142,399
139,331
135,94
132,238
128,236
123,949
119,391
114,581
109,537
104,276
98,82
93,19
87,408
81,497
75,481
69,383
63,227
57,037
50,836
44,648
38,495
32,398
26,38
20,462
14,663
9,003
3,502
-1,824
-6,956
-11,881
-16,585
-21,055
-25,281
-29,255
-32,969
-36,419
-39,6
-42,51
-45,149
-47,518
-49,62
-51,457
-53,037
-54,366
-55,454
-56,309
-56,942
-57,367
-57,593
-57,635
-57,505
-57,216
-56,781
-56,214
-55,53
-54,741
-53,862
-52,906
-51,889
-50,823
-49,722
-48,597
-47,462
-46,326
-45,2
-44,093
-43,015
-41,973
-40,975
-40,027
-39,136
-38,306
-37,541
-36,843
-36,216
-35,659
-35,173
-34,756
-34,408
-34,126
-33,908
-33,753
-33,658
-33,619
-33,636
-33,703
-33,819
-33,98
-34,182
-34,422
-34,696
-35,001
-35,335
-35,694
-36,077
-36,482
-36,906
-37,349
-37,808
-38,283
-38,772
-39,274
-39,786
-40,309
-40,842
-41,385
-41,938
-42,503
-43,079
-43,667
-44,269
-44,885
-45,515
-46,159
-46,817
-47,488
-48,173
-48,869
-49,578
-50,296
-51,024
-51,759
-52,499
-53,241
-53,982
-54,717
-55,441
-56,151
-56,841
-57,505
-58,141
-58,741
-59,303
-59,822
-60,294
-60,715
-61,081
-61,387
-61,629
-61,803
-61,905
-61,934
-61,885
-61,758
-61,551
-61,265
-60,899
-60,454
-59,932
-59,333
-58,659
-57,912
-57,096
-56,213
-55,268
-54,269
-53,221
-52,132
-51,01
-49,865
-48,707
-47,544
-46,385
-45,237
-44,105
-43,001
-41,937
-40,92
-39,961
-39,066
-38,235
-37,486
-36,837
-36,272
-35,78
-35,351
-34,968
-34,653
-34,444
-34,312
-34,227
-34,263
-34,48
-34,921
-35,657
-36,629
-37,722
-38,996
-40,564
-42,12
-43,305
-44,324
-45,151
-45,713
-46,768
-46,258
-42,184
-37,397
-32,763
-33,524
-45,955
-63,109
-80,357
-90,803
-84,979
-71,254
-56,721
-46,24
-47,847
-55,802
-64,284
-72,004
-75,413
-76,575
-78,139
-79,602
-81,301
-83,054
-84,309
-85,411
-86,644
-87,931
-89,283
-90,757
-92,348
-94,031
-95,792
-97,57
-99,29
-100,945
-102,494
-103,864
-105,013
-105,926
-106,616
-107,093
-107,348
-107,331
-106,986
-106,289
-105,246
-103,876
-102,169
-100,123
-97,753
-95,118
-92,381
-89,705
-87,217
-85,001
-83,096
-81,541
-80,411
-79,853
-79,889
-80,36
-80,956
-81,211
-80,668
-78,991
-75,95
-71,269
-64,896
-57,242
-49,04
-41,569
-36,433
-34,876
-37,41
-43,914
-53,443
-64,278
-74,158
-79,774
-76,6
-59,729
-27,811
16,289
69,05
125,94
190,267
273,795
378,676
498,14
609,125
671,443
662,288
578,934
439,607
286,394
150,162
44,703
-27,802
-81,939
-129,283
-168,214
-193,011
-193,449
-158,91
-97,462
-28,705
28,475
52,275
40,755
10,899
-22,977
-44,29
-48,189
-44,721
-39,741
-37,832
-40,114
-41,444
-40,002
-36,603
-32,121
-28,494
-26,51
-25,661
-25,71
-26,545
-27,996
-29,937
-32,158
-34,409
-36,535
-38,481
-40,239
-41,781
-43,064
-44,049
-44,669
-44,87
-44,664
-44,072
-43,11
-41,802
-40,153
-38,169
-35,904
-33,42
-30,782
-28,064
-25,314
-22,561
-19,847
-17,204
-14,66
-12,24
-9,947
-7,77
-5,709
-3,767
-1,95
-0,267
1,289
2,726
4,055
5,286
6,429
7,493
8,488
9,423
10,305
11,138
11,927
12,67
13,372
14,038
14,678
15,301
15,916
16,532
17,164
17,82
18,519
19,295
20,1
20,915
21,775
22,608
23,729
25,395
27,329
29,623
31,158
31,023
30,042
28,344
30,077
34,535
44,02
80,159
99,529
27,239
-37,927
27,666
111,549
99,866
65,6
64,287
69,794
73,586
80,019
86,112
91,348
95,718
99,608
103,822
108,177
112,601
117,094
121,545
125,961
130,341
134,656
138,888
143,023
147,044
150,932
154,672
158,247
161,64
164,835
167,817
170,571
173,083
175,337
177,322
179,025
180,435
181,54
182,332
182,801
182,941
182,744
182,207
181,326
180,098
178,524
176,606
174,345
171,749
168,822
165,574
162,013
158,151
153,999
149,571
144,882
139,947
134,782
129,404
123,833
118,087
112,186
106,149
99,997
93,751
87,43
81,057
74,652
68,236
61,83
55,456
49,133
42,884
36,727
30,682
24,768
19,001
13,399
7,976
2,746
-2,279
-7,087
-11,668
-16,015
-20,119
-23,975
-27,578
-30,924
-34,011
-36,839
-39,407
-41,716
-43,768
-45,567
-47,115
-48,418
-49,48
-50,307
-50,906
-51,284
-51,45
-51,412
-51,181
-50,766
-50,18
-49,434
-48,541
-47,512
-46,36
-45,097
-43,737
-42,291
-40,771
-39,189
-37,557
-35,886
-34,187
-32,47
-30,745
-29,023
-27,312
-25,622
-23,96
-22,335
-20,756
-19,228
-17,761
-16,361
-15,035
-13,789
-12,629
-11,561
-10,59
-9,718
-8,95
-8,287
-7,732
-7,285
-6,946
-6,715
-6,59
-6,569
-6,651
-6,832
-7,11
-7,48
-7,939
-8,482
-9,105
-9,803
-10,571
-11,403
-12,295
-13,239
-14,231
-15,263
-16,33
-17,423
-18,537
-19,663
-20,795
-21,925
-23,046
-24,149
-25,228
-26,276
-27,286
-28,252
-29,168
-30,028
-30,828
-31,564
-32,232
-32,828
-33,351
-33,798
-34,168
-34,46
-34,673
-34,806
-34,86
-34,836
-34,735
-34,559
-34,309
-33,989
-33,601
-33,15
-32,638
-32,071
-31,453
-30,788
-30,082
-29,341
-28,57
-27,776
-26,964
-26,141
-25,313
-24,488
-23,67
-22,866
-22,082
-21,323
-20,595
-19,901
-19,248
-18,638
-18,075
-17,563
-17,105
-16,704
-16,361
-16,078
-15,855
-15,693
-15,592
-15,552
-15,57
-15,645
-15,775
-15,959
-16,192
-16,472
-16,795
-17,159
-17,558
-17,988
-18,446
-18,925
-19,421
-19,93
-20,444
-20,96
-21,471
-21,974
-22,463
-22,934
-23,381
-23,802
-24,191
-24,546
-24,863
-25,139
-25,374
-25,565
-25,711
-25,812
-25,869
-25,884
-25,856
-25,789
-25,685
-25,546
-25,376
-25,178
-24,956
-24,713
-24,454
-24,182
-23,903
-23,619
-23,337
-23,06
-22,794
-22,541
-22,308
-22,097
-21,912
-21,758
-21,638
-21,554
-21,51
-21,506
-21,545
-21,627
-21,751
-21,918
-22,125
-22,369
-22,648
-22,957
-23,292
-23,649
-24,021
-24,402
-24,788
-25,17
-25,543
-25,898
-26,23
-26,53
-26,793
-27,011
-27,178
-27,287
-27,333
-27,31
-27,213
-27,037
-26,776
-26,426
-25,983
-25,443
-24,804
-24,064
-23,222
-22,278
-21,233
-20,091
-18,854
-17,526
-16,113
-14,62
-13,052
-11,418
-9,724
-7,978
-6,188
-4,364
-2,516
-0,655
1,209
3,065
4,903
6,714
8,488
10,215
11,888
13,498
15,038
16,501
17,876
19,155
20,329
21,39
22,33
23,145
23,828
24,374
24,782
25,05
25,178
25,164
25,01
24,713
24,274
23,69
22,959
22,08
21,054
19,882
18,569
17,12
15,542
13,844
12,038
10,134
8,141
6,063
3,902
1,661
-0,655
-3,038
-5,478
-7,964
-10,487
-13,035
-15,584
-18,119
-20,629
-23,116
-25,601
-28,1
-30,61
-33,12
-35,615
-38,076
-40,49
-42,825
-45,023
-47,024
-48,767
-50,22
-51,391
-52,289
-52,904
-53,202
-53,13
-52,65
-51,782
-50,559
-48,996
-47,098
-44,867
-42,338
-39,645
-36,974
-34,508
-32,399
-30,739
-29,545
-28,897
-28,951
-29,724
-31,089
-32,67
-33,838
-34,067
-33,066
-30,637
-26,638
-21,215
-14,685
-7,872
-2,273
0,643
-0,351
-5,763
-15,15
-27,292
-40,41
-51,881
-58,261
-55,787
-40,381
-9,527
37,182
98,793
172,517
253,876
337,45
416,372
482,317
528,679
550,877
545,763
513,402
456,293
378,262
285,916
188,133
92,944
7,854
-60,613
-109,229
-136,805
-143,537
-132,471
-108,482
-76,604
-42,652
-11,8
13,133
30,369
39,015
39,961
34,863
25,89
16,367
9,001
4,753
3,966
6,664
11,945
18,329
24,185
26,977
24,067
17,264
8,982
-2,47
-15,724
-34,567
-63,804
-93,374
-116,48
-125,268
-109,865
-80,662
-47,705
-17,836
-1,078
6,573
9,917
9,71
9,532
8,246
4,784
0,67
-3,716
-7,327
-9,209
-9,474
-8,26
-5,941
-3,223
-0,514
1,976
4,154
6,119
7,912
9,533
11,041
12,517
14,022
15,575
17,125
18,588
19,919
21,107
22,167
23,125
23,984
24,743
25,407
25,983
26,482
26,919
27,308
27,663
28,003
28,348
28,72
29,139
29,62
30,171
30,793
31,485
32,245
33,079
33,989
34,979
36,054
37,215
38,466
39,809
41,243
42,769
44,385
46,087
47,872
49,736
51,677
53,692
55,778
57,931
60,147
62,42
64,747
67,121
69,538
71,992
74,476
76,986
79,514
82,056
84,605
87,158
89,707
92,247
94,773
97,278
99,758
102,206
104,614
106,977
109,286
111,533
113,712
115,813
117,828
119,749
121,568
123,275
124,863
126,323
127,647
128,824
129,846
130,704
131,389
131,892
132,204
132,316
132,221
131,912
131,382
130,625
129,636
128,41
126,943
125,232
123,275
121,069
118,615
115,913
112,966
109,777
106,35
102,692
98,81
94,712
90,409
85,911
81,228
76,374
71,362
66,207
60,924
55,529
50,042
44,479
38,859
33,203
27,53
21,859
16,209
10,6
5,051
-0,421
-5,797
-11,059
-16,19
-21,173
-25,993
-30,634
-35,082
-39,326
-43,353
-47,153
-50,719
-54,043
-57,12
-59,943
-62,512
-64,822
-66,874
-68,668
-70,206
-71,491
-72,528
-73,325
-73,889
-74,229
-74,356
-74,282
-74,017
-73,574
-72,966
-72,207
-71,31
-70,288
-69,156
-67,929
-66,621
-65,247
-63,822
-62,36
-60,874
-59,379
-57,887
-56,411
-54,96
-53,548
-52,183
-50,876
-49,637
-48,473
-47,393
-46,404
-45,512
-44,722
-44,039
-43,465
-43,001
-42,648
-42,406
-42,273
-42,249
-42,332
-42,518
-42,805
-43,19
-43,668
-44,235
-44,886
-45,616
-46,418
-47,288
-48,217
-49,201
-50,234
-51,309
-52,422
-53,566
-54,735
-55,924
-57,127
-58,336
-59,547
-60,752
-61,945
-63,122
-64,275
-65,402
-66,498
-67,559
-68,582
-69,565
-70,506
-71,401
-72,249
-73,048
-73,797
-74,493
-75,137
-75,726
-76,261
-76,743
-77,17
-77,545
-77,866
-78,134
-78,35
-78,513
-78,623
-78,682
-78,69
-78,647
-78,556
-78,418
-78,236
-78,013
-77,752
-77,455
-77,126
-76,766
-76,378
-75,964
-75,527
-75,068
-74,59
-74,095
-73,587
-73,067
-72,538
-72,002
-71,463
-70,921
-70,379
-69,837
-69,299
-68,766
-68,239
-67,721
-67,215
-66,723
-66,248
-65,791
-65,355
-64,941
-64,548
-64,178
-63,831
-63,504
-63,198
-62,91
-62,642
-62,39
-62,154
-61,933
-61,725
-61,528
-61,341
-61,16
-60,983
-60,809
-60,633
-60,455
-60,271
-60,082
-59,885
-59,678
-59,462
-59,233
-58,991
-58,734
-58,46
-58,167
-57,853
-57,518
-57,161
-56,783
-56,385
-55,968
-55,537
-55,092
-54,639
-54,18
-53,718
-53,257
-52,802
-52,357
-51,927
-51,518
-51,135
-50,786
-50,476
-50,212
-50
-49,845
-49,752
-49,726
-49,771
-49,888
-50,082
-50,355
-50,71
-51,151
-51,679
-52,298
-53,009
-53,813
-54,711
-55,701
-56,78
-57,946
-59,193
-60,516
-61,911
-63,371
-64,893
-66,469
-68,094
-69,762
-71,465
-73,196
-74,945
-76,702
-78,458
-80,204
-81,929
-83,626
-85,287
-86,908
-88,484
-90,016
-91,502
-92,942
-94,333
-95,674
-96,962
-98,195
-99,367
-100,471
-101,501
-102,453
-103,327
-104,131
-104,871
-105,553
-106,18
-106,757
-107,286
-107,776
-108,227
-108,632
-108,986
-109,289
-109,552
-109,806
-110,077
-110,378
-110,713
-111,074
-111,449
-111,835
-112,204
-112,503
-112,68
-112,672
-112,44
-111,994
-111,339
-110,473
-109,383
-108,024
-106,368
-104,434
-102,249
-99,848
-97,26
-94,507
-91,646
-88,785
-86,068
-83,663
-81,702
-80,254
-79,37
-79,046
-79,31
-80,292
-81,951
-84,071
-86,336
-88,155
-88,997
-88,724
-87,187
-84,137
-79,677
-73,991
-67,546
-61,777
-58,186
-57,302
-59,162
-63,267
-68,145
-72,518
-75,146
-72,833
-61,435
-38,251
-1,494
46,714
99,861
153,898
207,501
264,931
333,937
414,49
496,856
557,467
568,222
513,289
394,059
236,208
78,29
-44,916
-112,286
-125,635
-102,226
-66,57
-38,39
-23,794
-20,626
-20,118
-15,449
-7,168
1,642
6,58
5,583
0,275
-6,685
-12,895
-17,25
-19,469
-19,572
-17,694
-14,028
-9,108
-3,707
1,416
5,793
9,214
11,652
13,16
13,773
13,568
12,669
11,276
9,597
7,778
5,944
4,147
2,403
0,758
-0,751
-2,083
-3,192
-4,065
-4,716
-5,137
-5,319
-5,26
-4,948
-4,418
-3,733
-2,954
-2,148
-1,362
-0,618
0,063
0,658
1,157
1,554
1,857
2,087
2,254
2,362
2,411
2,402
2,345
2,258
2,16
2,071
2,01
1,991
2,029
2,139
2,331
2,612
2,982
3,445
4
4,661
5,451
6,322
7,244
8,219
9,234
10,625
12,604
14,986
17,518
18,83
18,346
16,767
15,456
19,448
27,155
40,671
76,458
93,078
15,184
-85
-39,459
124,936
188,706
86,649
-3,387
18,571
63,853
75,529
79,481
84,601
86,085
87,583
90,448
94,506
99,261
103,822
108,279
112,712
117,115
121,575
126,062
130,555
135,06
139,569
144,074
148,566
153,037
157,478
161,877
166,225
170,511
174,723
178,849
182,878
186,796
190,591
194,251
197,762
201,113
204,29
207,279
210,068
212,645
214,995
217,107
218,967
220,564
221,885
222,92
223,657
224,088
224,204
223,997
223,461
222,591
221,385
219,839
217,954
215,732
213,173
210,284
207,071
203,54
199,702
195,567
191,148
186,457
181,51
176,323
170,912
165,295
159,49
153,517
147,396
141,148
134,794
128,357
121,859
115,323
108,774
102,233
95,724
89,27
82,893
76,616
70,458
64,439
58,58
52,897
47,407
42,125
37,066
32,242
27,663
23,339
19,276
15,481
11,958
8,708
5,734
3,035
0,61
-1,545
-3,434
-5,061
-6,434
-7,561
-8,449
-9,111
-9,556
-9,798
-9,849
-9,724
-9,437
-9,003
-8,436
-7,754
-6,97
-6,101
-5,163
-4,17
-3,138
-2,082
-1,015
0,048
1,095
2,114
3,095
4,026
4,9
5,707
6,441
7,094
7,661
8,137
8,517
8,798
8,977
9,054
9,026
8,895
8,661
8,328
7,896
7,37
6,753
6,05
5,266
4,407
3,478
2,485
1,436
0,337
-0,804
-1,981
-3,187
-4,413
-5,654
-6,903
-8,154
-9,4
-10,636
-11,858
-13,058
-14,234
-15,381
-16,493
-17,568
-18,601
-19,59
-20,531
-21,424
-22,265
-23,055
-23,791
-24,474
-25,104
-25,68
-26,203
-26,674
-27,094
-27,466
-27,79
-28,07
-28,308
-28,508
-28,673
-28,806
-28,91
-28,99
-29,048
-29,088
-29,113
-29,126
-29,131
-29,13
-29,128
-29,127
-29,13
-29,141
-29,163
-29,197
-29,248
-29,316
-29,404
-29,514
-29,649
-29,809
-29,996
-30,213
-30,46
-30,739
-31,05
-31,394
-31,771
-32,181
-32,623
-33,095
-33,597
-34,127
-34,684
-35,265
-35,868
-36,492
-37,133
-37,789
-38,457
-39,134
-39,815
-40,498
-41,178
-41,853
-42,519
-43,172
-43,809
-44,426
-45,021
-45,588
-46,124
-46,625
-47,087
-47,505
-47,875
-48,193
-48,457
-48,662
-48,806
-48,886
-48,901
-48,847
-48,722
-48,526
-48,258
-47,916
-47,5
-47,012
-46,452
-45,823
-45,127
-44,368
-43,548
-42,67
-41,738
-40,755
-39,725
-38,65
-37,533
-36,38
-35,195
-33,982
-32,749
-31,501
-30,244
-28,985
-27,73
-26,485
-25,256
-24,049
-22,867
-21,719
-20,609
-19,545
-18,534
-17,582
-16,697
-15,883
-15,148
-14,494
-13,925
-13,443
-13,05
-12,749
-12,542
-12,432
-12,421
-12,515
-12,719
-13,04
-13,483
-14,053
-14,751
-15,58
-16,538
-17,625
-18,836
-20,165
-21,607
-23,159
-24,823
-26,6
-28,492
-30,502
-32,626
-34,861
-37,203
-39,644
-42,17
-44,768
-47,423
-50,13
-52,9
-55,743
-58,664
-61,66
-64,722
-67,827
-70,949
-74,044
-77,049
-79,901
-82,534
-84,901
-86,991
-88,797
-90,321
-91,553
-92,462
-93,027
-93,252
-93,139
-92,691
-91,932
-90,908
-89,711
-88,495
-87,407
-86,556
-86,036
-85,917
-86,258
-87,128
-88,542
-90,427
-92,756
-95,552
-98,735
-102,152
-105,387
-107,681
-108,503
-107,69
-105,025
-100,304
-93,576
-84,949
-75,474
-67,327
-61,795
-59,058
-58,892
-60,315
-62,197
-63,889
-62,318
-51,967
-29,469
7,088
56,123
111,152
169,752
231,959
298,128
371,696
445,754
505,894
535,547
513,02
433,268
306,004
152,469
9,259
-99,504
-161,81
-179,026
-171,458
-153,804
-136,377
-123,797
-109,592
-91,946
-71,9
-51,398
-36,462
-29,74
-30,402
-36,969
-46,326
-55,633
-63,645
-69,584
-72,979
-73,97
-72,964
-70,523
-67,546
-64,974
-63,261
-62,563
-62,893
-64,071
-65,942
-68,368
-71,072
-73,737
-76,136
-78,16
-79,801
-81,103
-82,066
-82,65
-82,807
-82,524
-81,829
-80,748
-79,297
-77,479
-75,295
-72,783
-70,013
-67,062
-64,007
-60,898
-57,761
-54,622
-51,506
-48,437
-45,438
-42,514
-39,66
-36,878
-34,174
-31,56
-29,048
-26,64
-24,332
-22,115
-19,984
-17,931
-15,952
-14,042
-12,194
-10,402
-8,666
-6,985
-5,359
-3,787
-2,264
-0,785
0,658
2,073
3,467
4,85
6,23
7,617
9,019
10,442
11,895
13,383
14,915
16,498
18,139
19,846
21,627
23,49
25,441
27,489
29,641
31,902
34,28
36,778
39,402
42,154
45,037
48,052
51,202
54,487
57,905
61,457
65,139
68,95
72,884
76,937
81,103
85,374
89,743
94,2
98,736
103,341
108,005
112,715
117,461
122,228
127,004
131,774
136,523
141,235
145,892
150,477
154,972
159,358
163,616
167,727
171,672
175,433
178,991
182,328
185,427
188,272
190,845
193,132
195,118
196,789
198,133
199,139
199,797
200,099
200,037
199,606
198,803
197,623
196,066
194,132
191,822
189,139
186,088
182,674
178,907
174,795
170,351
165,588
160,523
155,171
149,551
143,683
137,586
131,283
124,794
118,144
111,355
104,451
97,457
90,396
83,293
76,172
69,056
61,97
54,935
47,974
41,107
34,355
27,737
21,273
14,98
8,875
2,974
-2,706
-8,154
-13,357
-18,303
-22,986
-27,397
-31,532
-35,387
-38,96
-42,252
-45,262
-47,994
-50,452
-52,64
-54,565
-56,234
-57,655
-58,839
-59,796
-60,535
-61,07
-61,411
-61,57
-61,559
-61,391
-61,078
-60,632
-60,066
-59,393
-58,626
-57,778
-56,862
-55,89
-54,874
-53,826
-52,758
-51,678
-50,596
-49,52
-48,458
-47,416
-46,399
-45,414
-44,464
-43,552
-42,681
-41,854
-41,071
-40,333
-39,64
-38,991
-38,386
-37,823
-37,302
-36,82
-36,376
-35,968
-35,594
-35,252
-34,94
-34,653
-34,39
-34,147
-33,921
-33,708
-33,505
-33,308
-33,116
-32,927
-32,738
-32,547
-32,355
-32,161
-31,965
-31,766
-31,565
-31,363
-31,162
-30,963
-30,768
-30,578
-30,396
-30,224
-30,065
-29,921
-29,794
-29,687
-29,603
-29,544
-29,512
-29,511
-29,543
-29,61
-29,717
-29,866
-30,061
-30,305
-30,6
-30,949
-31,355
-31,82
-32,345
-32,931
-33,579
-34,288
-35,058
-35,888
-36,778
-37,726
-38,731
-39,791
-40,904
-42,067
-43,279
-44,537
-45,838
-47,179
-48,556
-49,967
-51,407
-52,874
-54,361
-55,866
-57,382
-58,905
-60,428
-61,946
-63,451
-64,938
-66,398
-67,826
-69,215
-70,558
-71,85
-73,085
-74,257
-75,362
-76,396
-77,354
-78,233
-79,028
-79,737
-80,355
-80,881
-81,312
-81,643
-81,874
-82,002
-82,025
-81,943
-81,754
-81,458
-81,057
-80,551
-79,942
-79,234
-78,431
-77,538
-76,558
-75,5
-74,369
-73,172
-71,917
-70,612
-69,263
-67,879
-66,469
-65,04
-63,6
-62,157
-60,718
-59,29
-57,881
-56,498
-55,148
-53,836
-52,57
-51,358
-50,209
-49,128
-48,124
-47,204
-46,374
-45,641
-45,01
-44,484
-44,066
-43,758
-43,562
-43,479
-43,511
-43,659
-43,926
-44,314
-44,826
-45,462
-46,222
-47,105
-48,104
-49,216
-50,434
-51,751
-53,16
-54,651
-56,216
-57,849
-59,544
-61,292
-63,083
-64,902
-66,739
-68,586
-70,435
-72,275
-74,099
-75,903
-77,69
-79,477
-81,277
-83,095
-84,934
-86,793
-88,664
-90,541
-92,407
-94,216
-95,912
-97,435
-98,727
-99,76
-100,509
-100,932
-100,981
-100,609
-99,781
-98,5
-96,764
-94,522
-91,756
-88,489
-84,787
-80,838
-76,857
-73,003
-69,499
-66,63
-64,501
-63,108
-62,303
-61,606
-60,579
-58,997
-56,446
-52,486
-47,28
-41,316
-35,593
-31,926
-31,698
-35,639
-44,736
-59,706
-79,931
-103,965
-129,047
-150,611
-164,632
-167,895
-156,661
-127,762
-80,005
-13,563
69,282
163,175
262,23
360,38
449,906
523,079
573,951
597,691
591,493
556,234
494,747
411,51
314,071
211,171
110,75
20,668
-52,44
-105,058
-135,71
-144,941
-136,428
-115,32
-86,785
-56,543
-29,492
-8,501
4,664
9,535
7,415
0,337
-9,365
-18,963
-26,529
-31,242
-32,712
-31,107
-27,059
-21,29
-14,798
-8,731
-3,754
-0,104
2,178
3,268
3,322
2,429
0,797
-1,287
-3,608
-5,995
-8,335
-10,598
-12,74
-14,677
-16,321
-17,604
-18,497
-19,009
-19,157
-18,948
-18,381
-17,465
-16,236
-14,748
-13,064
-11,249
-9,369
-7,473
-5,606
-3,803
-2,095
-0,503
0,966
2,316
3,561
4,71
5,763
6,722
7,592
8,382
9,103
9,768
10,393
10,987
11,564
12,133
12,701
13,273
13,854
14,444
15,043
15,652
16,276
16,92
17,594
18,304
19,059
19,867
20,738
21,681
22,704
23,812
25,014
26,313
27,716
29,23
30,859
32,608
34,482
36,484
38,619
40,89
43,298
45,847
48,537
51,368
54,341
57,455
60,709
64,104
67,635
71,301
75,099
79,022
83,067
87,226
91,491
95,853
100,301
104,824
109,408
114,042
118,71
123,398
128,089
132,768
137,417
142,018
146,555
151,008
155,358
159,587
163,674
167,602
171,35
174,899
178,23
181,326
184,167
186,737
189,018
190,993
192,648
193,968
194,94
195,552
195,794
195,656
195,133
194,219
192,911
191,207
189,107
186,616
183,736
180,475
176,84
172,843
168,496
163,812
158,807
153,499
147,907
142,05
135,95
129,629
123,111
116,419
109,58
102,619
95,562
88,437
81,269
74,087
66,917
59,786
52,72
45,743
38,88
32,155
25,589
19,204
13,019
7,052
1,321
-4,16
-9,379
-14,322
-18,981
-23,349
-27,418
-31,185
-34,647
-37,803
-40,654
-43,201
-45,448
-47,4
-49,062
-50,442
-51,549
-52,393
-52,986
-53,339
-53,466
-53,381
-53,098
-52,632
-51,999
-51,214
-50,292
-49,248
-48,099
-46,858
-45,542
-44,165
-42,741
-41,283
-39,805
-38,318
-36,834
-35,363
-33,916
-32,502
-31,13
-29,808
-28,543
-27,345
-26,219
-25,171
-24,208
-23,334
-22,552
-21,867
-21,28
-20,793
-20,407
-20,122
-19,938
-19,856
-19,873
-19,99
-20,205
-20,515
-20,919
-21,414
-21,998
-22,668
-23,421
-24,255
-25,167
-26,153
-27,211
-28,338
-29,53
-30,784
-32,096
-33,462
-34,875
-36,332
-37,826
-39,351
-40,902
-42,471
-44,053
-45,641
-47,23
-48,814
-50,386
-51,941
-53,473
-54,976
-56,445
-57,874
-59,256
-60,587
-61,861
-63,073
-64,217
-65,288
-66,282
-67,195
-68,02
-68,755
-69,395
-69,938
-70,38
-70,719
-70,955
-71,086
-71,113
-71,038
-70,863
-70,592
-70,227
-69,775
-69,24
-68,627
-67,944
-67,197
-66,391
-65,534
-64,632
-63,691
-62,721
-61,727
-60,719
-59,704
-58,69
-57,687
-56,704
-55,748
-54,83
-53,956
-53,135
-52,375
-51,682
-51,063
-50,523
-50,069
-49,705
-49,436
-49,265
-49,196
-49,23
-49,366
-49,603
-49,939
-50,373
-50,9
-51,517
-52,22
-53,007
-53,877
-54,83
-55,865
-56,979
-58,168
-59,432
-60,764
-62,159
-63,609
-65,102
-66,63
-68,185
-69,761
-71,351
-72,952
-74,56
-76,173
-77,79
-79,41
-81,031
-82,651
-84,263
-85,867
-87,461
-89,052
-90,653
-92,271
-93,906
-95,557
-97,217
-98,871
-100,496
-102,058
-103,507
-104,792
-105,866
-106,682
-107,206
-107,407
-107,271
-106,779
-105,912
-104,668
-103,061
-101,129
-98,933
-96,535
-94,007
-91,449
-88,99
-86,781
-84,979
-83,73
-83,159
-83,352
-84,352
-86,187
-88,852
-92,301
-96,451
-101,153
-106,21
-111,457
-116,734
-121,849
-126,53
-130,385
-132,98
-133,872
-132,633
-128,95
-122,57
-113,396
-101,761
-88,223
-73,384
-57,99
-42,514
-27,063
-11,916
3,72
22,134
45,5
76,129
113,379
152,557
190,877
228,612
271,928
330,35
402,719
474,611
519,528
509,746
437,117
315,497
175,851
51,057
-41,868
-101,588
-137,433
-158,785
-168,128
-163,997
-145,016
-113,831
-76,525
-40,052
-9,559
12,739
26,127
30,919
28,453
20,567
9,655
-1,501
-11,151
-18,533
-23,324
-25,841
-26,627
-26,243
-25,49
-25,19
-25,741
-27,239
-29,604
-32,537
-35,761
-39,017
-42,031
-44,619
-46,714
-48,325
-49,5
-50,289
-50,71
-50,768
-50,476
-49,844
-48,881
-47,589
-45,988
-44,119
-42,048
-39,868
-37,646
-35,415
-33,195
-30,998
-28,831
-26,71
-24,638
-22,612
-20,633
-18,713
-16,868
-15,114
-13,462
-11,91
-10,454
-9,082
-7,789
-6,57
-5,422
-4,337
-3,313
-2,348
-1,441
-0,598
0,185
0,911
1,586
2,22
2,822
3,398
3,96
4,519
5,088
5,675
6,291
6,944
7,647
8,408
9,239
10,15
11,15
12,25
13,46
14,787
16,242
17,83
19,558
21,432
23,458
25,638
27,977
30,477
33,139
35,964
38,952
42,102
45,412
48,879
52,498
56,263
60,168
64,204
68,363
72,632
77
81,454
85,98
90,564
95,19
99,842
104,5
109,149
113,769
118,341
122,848
127,269
131,586
135,779
139,831
143,721
147,432
150,945
154,241
157,301
160,11
162,649
164,903
166,856
168,496
169,808
170,782
171,407
171,675
171,577
171,108
170,264
169,041
167,441
165,464
163,114
160,397
157,32
153,894
150,128
146,036
141,63
136,926
131,939
126,686
121,186
115,458
109,522
103,4
97,114
90,687
84,143
77,506
70,801
64,051
57,281
50,514
43,776
37,088
30,475
23,958
17,56
11,302
5,203
-0,718
-6,446
-11,964
-17,26
-22,323
-27,144
-31,714
-36,027
-40,079
-43,866
-47,385
-50,636
-53,619
-56,336
-58,79
-60,986
-62,931
-64,63
-66,093
-67,328
-68,346
-69,158
-69,774
-70,206
-70,467
-70,569
-70,526
-70,351
-70,058
-69,661
-69,174
-68,61
-67,983
-67,305
-66,587
-65,839
-65,071
-64,292
-63,51
-62,731
-61,963
-61,211
-60,481
-59,778
-59,105
-58,465
-57,861
-57,296
-56,769
-56,282
-55,835
-55,428
-55,06
-54,731
-54,441
-54,188
-53,971
-53,789
-53,639
-53,52
-53,428
-53,361
-53,316
-53,29
-53,281
-53,286
-53,303
-53,331
-53,367
-53,412
-53,462
-53,518
-53,578
-53,642
-53,708
-53,775
-53,843
-53,911
-53,977
-54,042
-54,103
-54,159
-54,208
-54,249
-54,28
-54,297
-54,297
-54,278
-54,236
-54,168
-54,07
-53,939
-53,771
-53,563
-53,311
-53,012
-52,662
-52,259
-51,798
-51,276
-50,691
-50,039
-49,318
-48,526
-47,661
-46,721
-45,704
-44,61
-43,438
-42,189
-40,862
-39,46
-37,984
-36,438
-34,825
-33,15
-31,418
-29,633
-27,803
-25,932
-24,029
-22,1
-20,151
-18,192
-16,23
-14,274
-12,332
-10,414
-8,528
-6,681
-4,883
-3,141
-1,463
0,145
1,678
3,128
4,49
5,759
6,928
7,991
8,945
9,785
10,508
11,111
11,595
11,957
12,2
12,324
12,332
12,224
12,002
11,665
11,211
10,641
9,954
9,152
8,236
7,211
6,082
4,857
3,549
2,166
0,717
-0,792
-2,358
-3,978
-5,647
-7,36
-9,113
-10,897
-12,708
-14,537
-16,37
-18,194
-20,002
-21,798
-23,601
-25,423
-27,263
-29,114
-30,962
-32,791
-34,584
-36,314
-37,929
-39,373
-40,591
-41,528
-42,167
-42,506
-42,523
-42,184
-41,442
-40,254
-38,637
-36,65
-34,326
-31,699
-28,787
-25,602
-22,263
-18,939
-15,806
-13,048
-10,772
-9
-7,828
-7,429
-7,838
-8,955
-10,4
-11,527
-11,853
-11,103
-9,075
-5,62
-0,786
5,137
11,329
16,554
19,741
20,022
17,136
11,482
4,001
-3,621
-8,746
-8,572
-0,575
18,535
51,117
97,642
158,164
228,72
300,944
371,062
436,93
497,362
558,177
613,8
648,377
651,261
609,251
523,097
414,301
298,455
190,604
105,779
42,2
3,016
-6,313
3,525
26,9
55,463
75,687
89,655
99,055
102,865
104,404
101,607
92,985
81,599
69,608
58,747
50,515
44,887
41,459
40,225
40,806
42,258
43,541
43,976
43,255
41,404
38,655
35,063
30,636
25,551
20,072
14,484
9,054
3,904
-0,967
-5,545
-9,795
-13,672
-17,107
-20,06
-22,558
-24,616
-26,237
-27,416
-28,131
-28,397
-28,273
-27,852
-27,233
-26,484
-25,647
-24,754
-23,84
-22,937
-22,076
-21,267
-20,499
-19,772
-19,095
-18,482
-17,953
-17,519
-17,176
-16,913
-16,724
-16,6
-16,536
-16,524
-16,556
-16,625
-16,725
-16,856
-17,023
-17,221
-17,445
-17,687
-17,933
-18,173
-18,393
-18,579
-18,713
-18,78
-18,765
-18,655
-18,437
-18,096
-17,619
-16,992
-16,202
-15,237
-14,084
-12,73
-11,165
-9,381
-7,369
-5,122
-2,638
0,089
3,061
6,277
9,737
13,441
17,386
21,569
25,985
30,629
35,491
40,563
45,833
51,288
56,912
62,69
68,604
74,634
80,763
86,968
93,229
99,524
105,829
112,12
118,374
124,564
130,665
136,654
142,505
148,195
153,699
158,996
164,064
168,88
173,424
177,675
181,613
185,221
188,478
191,369
193,878
195,991
197,695
198,979
199,834
200,253
200,23
199,76
198,842
197,476
195,662
193,405
190,71
187,585
184,041
180,089
175,742
171,018
165,931
160,5
154,744
148,682
142,336
135,726
128,875
121,807
114,547
107,118
99,547
91,859
84,083
76,243
68,366
60,478
52,604
44,77
37
29,318
21,747
14,31
7,027
-0,082
-6,998
-13,704
-20,184
-26,427
-32,42
-38,155
-43,622
-48,816
-53,732
-58,367
-62,719
-66,786
-70,571
-74,074
-77,299
-80,253
-82,94
-85,37
-87,551
-89,494
-91,21
-92,709
-94,006
-95,112
-96,042
-96,808
-97,425
-97,907
-98,269
-98,526
-98,691
-98,78
-98,805
-98,78
-98,716
-98,625
-98,515
-98,397
-98,278
-98,166
-98,065
-97,983
-97,924
-97,891
-97,887
-97,914
-97,972
-98,061
-98,18
-98,327
-98,499
-98,691
-98,9
-99,122
-99,351
-99,583
-99,812
-100,033
-100,239
-100,425
-100,583
-100,709
-100,794
-100,834
-100,822
-100,753
-100,623
-100,429
-100,166
-99,834
-99,429
-98,951
-98,4
-97,775
-97,079
-96,312
-95,477
-94,577
-93,617
-92,601
-91,535
-90,425
-89,277
-88,098
-86,895
-85,674
-84,443
-83,208
-81,975
-80,752
-79,545
-78,362
-77,208
-76,091
-75,016
-73,989
-73,016
-72,101
-71,248
-70,461
-69,743
-69,094
-68,517
-68,012
-67,579
-67,217
-66,925
-66,699
-66,537
-66,433
-66,382
-66,378
-66,414
-66,482
-66,575
-66,685
-66,804
-66,925
-67,039
-67,139
-67,219
-67,27
-67,286
-67,259
-67,183
-67,052
-66,859
-66,599
-66,269
-65,863
-65,378
-64,812
-64,164
-63,43
-62,612
-61,708
-60,719
-59,647
-58,494
-57,265
-55,963
-54,596
-53,169
-51,693
-50,175
-48,626
-47,056
-45,475
-43,893
-42,32
-40,767
-39,243
-37,758
-36,32
-34,94
-33,626
-32,388
-31,234
-30,172
-29,209
-28,351
-27,605
-26,975
-26,466
-26,081
-25,822
-25,693
-25,695
-25,831
-26,102
-26,509
-27,052
-27,728
-28,535
-29,469
-30,523
-31,692
-32,967
-34,341
-35,806
-37,355
-38,982
-40,683
-42,455
-44,293
-46,195
-48,156
-50,173
-52,24
-54,347
-56,489
-58,655
-60,837
-63,03
-65,227
-67,425
-69,622
-71,813
-73,994
-76,162
-78,31
-80,431
-82,524
-84,577
-86,585
-88,546
-90,468
-92,368
-94,262
-96,151
-98,036
-99,915
-101,779
-103,621
-105,42
-107,128
-108,7
-110,082
-111,219
-112,092
-112,689
-112,98
-112,934
-112,502
-111,653
-110,419
-108,837
-106,916
-104,665
-102,071
-99,173
-96,131
-93,12
-90,32
-87,915
-85,984
-84,619
-84,01
-84,193
-85,062
-86,377
-87,626
-88,384
-88,505
-87,787
-86,013
-83,32
-79,998
-76,697
-74,521
-74,09
-75,731
-79,732
-85,863
-93,732
-102,251
-108,989
-111,78
-107,006
-90,782
-62,91
-22,238
27,255
76,818
125,967
173,776
225,814
297,441
389,461
493,458
590,394
644,852
634,47
557,82
430,368
287,127
159,717
61,655
-6,429
-54,154
-90,429
-116,478
-129,815
-128,32
-114,084
-92,124
-68,221
-47,393
-31,919
-22,79
-20,431
-23,747
-30,828
-39,589
-47,656
-53,477
-56,604
-56,846
-54,366
-49,725
-43,597
-36,918
-30,753
-25,691
-21,919
-19,462
-18,171
-17,927
-18,663
-20,18
-22,203
-24,508
-26,908
-29,27
-31,544
-33,667
-35,547
-37,098
-38,248
-38,972
-39,28
-39,191
-38,715
-37,853
-36,616
-35,036
-33,174
-31,092
-28,863
-26,557
-24,229
-21,925
-19,684
-17,538
-15,509
-13,607
-11,828
-10,161
-8,599
-7,142
-5,792
-4,546
-3,399
-2,34
-1,358
-0,44
0,424
1,244
2,028
2,783
3,512
4,218
4,901
5,561
6,196
6,812
7,415
8,011
8,608
9,213
9,835
10,481
11,16
11,88
12,649
13,472
14,357
15,311
16,343
17,458
18,665
19,97
21,38
22,899
24,534
26,29
28,172
30,182
32,326
34,605
37,022
39,581
42,282
45,126
48,113
51,242
54,51
57,915
61,452
65,115
68,898
72,793
76,791
80,883
85,058
89,303
93,606
97,952
102,327
106,714
111,096
115,457
119,78
124,046
128,237
132,336
136,324
140,183
143,895
147,44
150,802
153,961
156,9
159,602
162,05
164,229
166,124
167,721
169,008
169,974
170,609
170,906
170,856
170,455
169,7
168,587
167,119
165,297
163,125
160,61
157,761
154,587
151,101
147,315
143,243
138,901
134,305
129,473
124,422
119,173
113,746
108,162
102,442
96,61
90,689
84,701
78,67
72,618
66,57
60,546
54,57
48,662
42,844
37,134
31,553
26,119
20,848
15,755
10,854
6,157
1,674
-2,587
-6,619
-10,417
-13,979
-17,3
-20,382
-23,222
-25,823
-28,187
-30,317
-32,218
-33,896
-35,357
-36,61
-37,664
-38,53
-39,216
-39,736
-40,1
-40,321
-40,41
-40,381
-40,246
-40,019
-39,713
-39,34
-38,914
-38,446
-37,949
-37,433
-36,908
-36,382
-35,864
-35,36
-34,877
-34,42
-33,994
-33,604
-33,255
-32,948
-32,688
-32,476
-32,314
-32,203
-32,141
-32,129
-32,164
-32,246
-32,37
-32,534
-32,736
-32,97
-33,232
-33,519
-33,824
-34,142
-34,469
-34,797
-35,12
-35,434
-35,734
-36,013
-36,268
-36,496
-36,693
-36,857
-36,984
-37,074
-37,122
-37,129
-37,091
-37,008
-36,879
-36,703
-36,48
-36,21
-35,895
-35,535
-35,132
-34,689
-34,208
-33,691
-33,141
-32,562
-31,957
-31,331
-30,687
-30,032
-29,371
-28,707
-28,048
-27,398
-26,763
-26,146
-25,551
-24,984
-24,447
-23,944
-23,478
-23,052
-22,669
-22,333
-22,044
-21,807
-21,623
-21,492
-21,418
-21,399
-21,437
-21,532
-21,682
-21,887
-22,146
-22,457
-22,82
-23,231
-23,689
-24,189
-24,729
-25,306
-25,914
-26,55
-27,21
-27,889
-28,584
-29,29
-30,004
-30,724
-31,444
-32,163
-32,877
-33,583
-34,279
-34,96
-35,624
-36,27
-36,894
-37,495
-38,071
-38,621
-39,145
-39,641
-40,111
-40,552
-40,967
-41,355
-41,716
-42,053
-42,365
-42,656
-42,926
-43,178
-43,414
-43,636
-43,847
-44,047
-44,24
-44,427
-44,61
-44,789
-44,966
-45,143
-45,32
-45,499
-45,68
-45,864
-46,052
-46,245
-46,443
-46,645
-46,852
-47,064
-47,278
-47,495
-47,713
-47,93
-48,146
-48,358
-48,564
-48,764
-48,954
-49,134
-49,3
-49,451
-49,584
-49,698
-49,79
-49,859
-49,904
-49,923
-49,915
-49,881
-49,819
-49,731
-49,615
-49,472
-49,303
-49,109
-48,889
-48,646
-48,379
-48,093
-47,787
-47,465
-47,131
-46,786
-46,436
-46,083
-45,732
-45,386
-45,049
-44,726
-44,419
-44,134
-43,874
-43,644
-43,449
-43,293
-43,181
-43,115
-43,1
-43,138
-43,232
-43,385
-43,597
-43,87
-44,206
-44,606
-45,071
-45,603
-46,201
-46,866
-47,597
-48,393
-49,251
-50,169
-51,141
-52,164
-53,233
-54,344
-55,492
-56,672
-57,88
-59,112
-60,361
-61,621
-62,887
-64,152
-65,407
-66,646
-67,86
-69,045
-70,195
-71,306
-72,373
-73,392
-74,361
-75,276
-76,134
-76,932
-77,664
-78,328
-78,922
-79,444
-79,894
-80,273
-80,584
-80,831
-81,022
-81,163
-81,263
-81,325
-81,355
-81,358
-81,337
-81,294
-81,229
-81,144
-81,043
-80,932
-80,82
-80,718
-80,637
-80,585
-80,57
-80,593
-80,657
-80,757
-80,885
-81,033
-81,198
-81,383
-81,607
-81,883
-82,217
-82,613
-83,068
-83,562
-84,063
-84,519
-84,856
-85,02
-84,973
-84,694
-84,184
-83,445
-82,484
-81,304
-79,892
-78,232
-76,309
-74,098
-71,567
-68,747
-65,718
-62,604
-59,6
-56,818
-54,294
-52,091
-50,237
-48,727
-47,546
-46,593
-45,687
-44,843
-44,217
-43,829
-43,714
-43,638
-42,986
-41,401
-38,743
-34,673
-28,809
-21,049
-11,165
0,457
12,02
22,092
30,063
35,126
38,916
45,759
57,936
76,326
97,359
109,279
104,051
86,372
73,243
94,477
176,741
316,901
487,641
645,213
736,076
737,229
649,82
487,289
291,466
95,384
-74,596
-187,758
-239,656
-232,725
-176,693
-96,592
-12,602
55,562
95,248
103,528
86,467
60,654
38,079
27,798
31,064
37,762
42,292
41,93
36,415
31,104
28,542
28,322
30,041
32,202
33,774
34,793
35,247
35,019
34,181
32,915
31,334
29,574
27,858
26,321
25,034
24,082
23,439
23,043
22,898
23,025
23,436
24,143
25,127
26,365
27,855
29,601
31,586
33,772
36,085
38,45
40,821
43,168
45,477
47,73
49,908
51,992
53,977
55,865
57,657
59,347
60,925
62,38
63,707
64,912
66,003
66,993
67,89
68,7
69,431
70,09
70,682
71,211
71,678
72,079
72,414
72,686
72,9
73,063
73,179
73,257
73,303
73,328
73,338
73,343
73,35
73,366
73,399
73,456
73,545
73,675
73,852
74,085
74,383
74,751
75,198
75,729
76,351
77,068
77,884
78,804
79,829
80,963
82,207
83,563
85,034
86,621
88,325
90,148
92,088
94,145
96,317
98,602
100,995
103,49
106,083
108,767
111,535
114,379
117,29
120,26
123,278
126,333
129,414
132,508
135,601
138,682
141,734
144,745
147,7
150,585
153,386
156,089
158,681
161,147
163,476
165,652
167,662
169,494
171,135
172,572
173,793
174,788
175,547
176,06
176,318
176,315
176,044
175,5
174,678
173,576
172,192
170,526
168,579
166,354
163,857
161,091
158,066
154,79
151,272
147,523
143,556
139,382
135,014
130,467
125,755
120,893
115,898
110,785
105,573
100,278
94,918
89,511
84,075
78,628
73,188
67,772
62,4
57,088
51,855
46,716
41,689
36,789
32,031
27,429
22,995
18,741
14,676
10,808
7,146
3,695
0,461
-2,554
-5,345
-7,911
-10,25
-12,363
-14,252
-15,917
-17,362
-18,591
-19,609
-20,42
-21,031
-21,449
-21,681
-21,734
-21,619
-21,344
-20,919
-20,357
-19,668
-18,864
-17,959
-16,965
-15,893
-14,757
-13,568
-12,337
-11,076
-9,796
-8,506
-7,216
-5,937
-4,675
-3,441
-2,242
-1,086
0,021
1,072
2,062
2,984
3,833
4,606
5,298
5,904
6,421
6,846
7,177
7,413
7,551
7,592
7,538
7,388
7,146
6,815
6,397
5,897
5,317
4,663
3,937
3,146
2,292
1,381
0,416
-0,596
-1,653
-2,75
-3,882
-5,044
-6,233
-7,445
-8,675
-9,919
-11,173
-12,432
-13,692
-14,948
-16,197
-17,433
-18,653
-19,853
-21,029
-22,178
-23,297
-24,386
-25,441
-26,463
-27,45
-28,402
-29,319
-30,201
-31,049
-31,863
-32,645
-33,394
-34,113
-34,802
-35,461
-36,093
-36,698
-37,276
-37,83
-38,359
-38,865
-39,348
-39,81
-40,253
-40,676
-41,083
-41,475
-41,853
-42,22
-42,576
-42,924
-43,266
-43,602
-43,934
-44,262
-44,587
-44,91
-45,229
-45,546
-45,858
-46,166
-46,469
-46,765
-47,053
-47,334
-47,605
-47,867
-48,118
-48,359
-48,587
-48,804
-49,01
-49,203
-49,384
-49,554
-49,712
-49,86
-49,996
-50,123
-50,24
-50,347
-50,446
-50,535
-50,615
-50,687
-50,752
-50,81
-50,862
-50,91
-50,956
-51,002
-51,05
-51,102
-51,16
-51,228
-51,307
-51,4
-51,508
-51,635
-51,783
-51,953
-52,147
-52,368
-52,616
-52,892
-53,198
-53,533
-53,898
-54,293
-54,716
-55,168
-55,646
-56,152
-56,683
-57,238
-57,816
-58,415
-59,032
-59,666
-60,314
-60,971
-61,634
-62,3
-62,963
-63,621
-64,268
-64,9
-65,512
-66,099
-66,658
-67,183
-67,669
-68,112
-68,508
-68,851
-69,139
-69,368
-69,536
-69,639
-69,677
-69,647
-69,548
-69,38
-69,142
-68,833
-68,454
-68,006
-67,491
-66,911
-66,269
-65,568
-64,814
-64,01
-63,162
-62,275
-61,353
-60,405
-59,434
-58,448
-57,454
-56,46
-55,472
-54,498
-53,547
-52,626
-51,741
-50,901
-50,111
-49,377
-48,705
-48,099
-47,565
-47,109
-46,735
-46,45
-46,257
-46,161
-46,165
-46,273
-46,485
-46,803
-47,227
-47,756
-48,388
-49,124
-49,964
-50,909
-51,959
-53,115
-54,375
-55,741
-57,209
-58,776
-60,435
-62,177
-63,994
-65,88
-67,825
-69,824
-71,873
-73,971
-76,118
-78,311
-80,546
-82,816
-85,112
-87,42
-89,729
-92,027
-94,306
-96,568
-98,818
-101,058
-103,29
-105,513
-107,709
-109,851
-111,905
-113,82
-115,552
-117,053
-118,282
-119,21
-119,818
-120,104
-120,063
-119,675
-118,924
-117,796
-116,294
-114,437
-112,271
-109,859
-107,288
-104,682
-102,157
-99,822
-97,789
-96,15
-94,993
-94,373
-94,333
-94,898
-96,081
-97,942
-100,429
-103,334
-106,305
-108,805
-110,195
-109,939
-107,703
-103,102
-96,071
-87,032
-76,632
-66,208
-57,553
-51,957
-49,946
-51,606
-56,153
-62,035
-67,369
-68,582
-60,593
-38,555
-1,512
46,895
102,231
159,47
223,064
306,613
412,884
537,231
657,751
729,835
726,58
635,606
460,556
243,645
23,205
-166,073
-285,869
-333,098
-315,867
-251,905
-179,037
-117,038
-74,06
-50,613
-31,783
-11,419
8,345
24,489
29,76
22,971
9,161
-7,715
-23,879
-37,065
-47,128
-53,453
-55,168
-52,967
-48,616
-43,653
-39,386
-36,411
-34,578
-34,002
-35,039
-37,517
-40,847
-44,44
-47,732
-50,513
-52,927
-55,024
-56,737
-58,022
-58,875
-59,349
-59,541
-59,496
-59,179
-58,556
-57,617
-56,402
-54,989
-53,456
-51,868
-50,261
-48,65
-47,058
-45,503
-44,005
-42,582
-41,232
-39,945
-38,724
-37,574
-36,505
-35,528
-34,637
-33,817
-33,055
-32,336
-31,649
-30,988
-30,343
-29,705
-29,069
-28,431
-27,789
-27,144
-26,493
-25,83
-25,149
-24,443
-23,702
-22,922
-22,093
-21,208
-20,259
-19,241
-18,146
-16,97
-15,707
-14,351
-12,896
-11,335
-9,663
-7,872
-5,958
-3,915
-1,739
0,575
3,03
5,63
8,376
11,271
14,316
17,513
20,862
24,366
28,025
31,838
35,804
39,921
44,188
48,6
53,154
57,842
62,659
67,597
72,649
77,805
83,055
88,39
93,796
99,262
104,774
110,318
115,878
121,439
126,985
132,498
137,963
143,362
148,677
153,891
158,986
163,943
168,744
173,372
177,807
182,032
186,029
189,783
193,276
196,494
199,422
202,047
204,357
206,341
207,989
209,294
210,249
210,851
211,095
210,981
210,511
209,687
208,514
206,998
205,147
202,97
200,477
197,68
194,593
191,23
187,606
183,739
179,645
175,345
170,858
166,205
161,406
156,483
151,457
146,351
141,186
135,983
130,765
125,552
120,366
115,227
110,154
105,167
100,282
95,516
90,882
86,394
82,064
77,901
73,915
70,113
66,5
63,083
59,865
56,848
54,035
51,424
49,015
46,805
44,791
42,969
41,332
39,875
38,591
37,473
36,512
35,701
35,029
34,489
34,07
33,761
33,552
33,432
33,39
33,416
33,5
33,632
33,803
34,005
34,229
34,469
34,717
34,967
35,212
35,447
35,666
35,866
36,04
36,186
36,3
36,381
36,424
36,429
36,394
36,317
36,196
36,029
35,816
35,555
35,245
34,886
34,477
34,019
33,512
32,957
32,356
31,708
31,014
30,277
29,495
28,67
27,802
26,893
25,943
24,952
23,923
22,856
21,752
20,613
19,439
18,231
16,992
15,72
14,42
13,091
11,736
10,358
8,96
7,546
6,117
4,68
3,237
1,793
0,35
-1,085
-2,511
-3,923
-5,317
-6,69
-8,036
-9,354
-10,638
-11,886
-13,093
-14,257
-15,374
-16,443
-17,46
-18,422
-19,328
-20,175
-20,961
-21,684
-22,342
-22,933
-23,457
-23,913
-24,301
-24,622
-24,876
-25,065
-25,192
-25,257
-25,263
-25,214
-25,112
-24,959
-24,76
-24,518
-24,236
-23,919
-23,568
-23,189
-22,783
-22,355
-21,908
-21,443
-20,963
-20,472
-19,97
-19,46
-18,945
-18,426
-17,906
-17,387
-16,871
-16,36
-15,855
-15,357
-14,868
-14,387
-13,917
-13,456
-13,005
-12,565
-12,135
-11,716
-11,307
-10,909
-10,52
-10,142
-9,773
-9,414
-9,065
-8,726
-8,4
-8,086
-7,788
-7,509
-7,25
-7,014
-6,807
-6,63
-6,488
-6,385
-6,324
-6,311
-6,348
-6,442
-6,595
-6,814
-7,103
-7,466
-7,908
-8,434
-9,047
-9,751
-10,551
-11,45
-12,45
-13,557
-14,771
-16,097
-17,535
-19,088
-20,757
-22,542
-24,442
-26,455
-28,579
-30,81
-33,143
-35,573
-38,094
-40,698
-43,379
-46,127
-48,934
-51,791
-54,687
-57,612
-60,555
-63,505
-66,452
-69,382
-72,285
-75,149
-77,963
-80,717
-83,398
-85,996
-88,5
-90,901
-93,187
-95,349
-97,377
-99,262
-100,995
-102,569
-103,978
-105,215
-106,276
-107,16
-107,865
-108,39
-108,738
-108,91
-108,911
-108,743
-108,412
-107,925
-107,287
-106,506
-105,59
-104,548
-103,389
-102,125
-100,766
-99,324
-97,809
-96,232
-94,605
-92,939
-91,246
-89,537
-87,824
-86,117
-84,43
-82,777
-81,171
-79,623
-78,147
-76,753
-75,451
-74,251
-73,16
-72,183
-71,326
-70,592
-69,984
-69,507
-69,163
-68,958
-68,896
-68,982
-69,219
-69,61
-70,155
-70,853
-71,698
-72,685
-73,802
-75,041
-76,395
-77,857
-79,422
-81,086
-82,842
-84,681
-86,594
-88,565
-90,58
-92,622
-94,665
-96,69
-98,685
-100,646
-102,591
-104,532
-106,47
-108,397
-110,301
-112,164
-113,966
-115,683
-117,254
-118,621
-119,731
-120,539
-121,033
-121,216
-121,066
-120,534
-119,569
-118,11
-116,155
-113,751
-110,909
-107,645
-103,976
-99,908
-95,572
-91,156
-86,821
-82,738
-79,02
-75,696
-72,924
-70,963
-69,865
-69,539
-69,625
-69,396
-68,313
-66,06
-62,206
-56,436
-48,81
-39,745
-30,415
-22,712
-18,358
-18,696
-24,657
-36,196
-52,119
-70,225
-87,208
-98,633
-99,375
-84,488
-49,999
3,993
72,797
151,279
235,737
328,008
431,886
542,948
646,166
717,202
734,413
690,071
592,739
461,046
310,451
154,621
5,901
-121,625
-205,453
-231,279
-200,514
-126,57
-39,009
33,188
76,256
84,531
66,92
41,544
18,327
5,459
4,244
6,333
8,166
7,514
3,677
1,021
1,343
4,109
8,782
13,502
16,885
18,957
19,812
19,482
18,241
16,223
13,49
10,282
6,865
3,399
0,059
-3,049
-5,929
-8,553
-10,861
-12,781
-14,24
-15,228
-15,772
-15,896
-15,614
-14,918
-13,809
-12,337
-10,57
-8,584
-6,465
-4,259
-2,002
0,268
2,518
4,72
6,847
8,901
10,896
12,832
14,704
16,503
18,218
19,851
21,409
22,896
24,321
25,687
26,996
28,255
29,466
30,627
31,735
32,785
33,766
34,674
35,507
36,263
36,943
37,551
38,088
38,559
38,97
39,327
39,632
39,893
40,111
40,292
40,441
40,563
40,664
40,749
40,825
40,897
40,973
41,057
41,158
41,28
41,432
41,617
41,844
42,119
42,449
42,842
43,307
43,85
44,482
45,208
46,037
46,974
48,026
49,197
50,489
51,905
53,445
55,109
56,895
58,802
60,827
62,965
65,211
67,561
70,006
72,541
75,156
77,842
80,588
83,384
86,217
89,075
91,943
94,808
97,653
100,462
103,217
105,902
108,495
110,979
113,333
115,537
117,57
119,415
121,051
122,461
123,628
124,537
125,174
125,527
125,583
125,334
124,772
123,891
122,684
121,15
119,287
117,094
114,573
111,728
108,563
105,085
101,304
97,228
92,87
88,243
83,363
78,246
72,911
67,378
61,669
55,807
49,817
43,723
37,551
31,329
25,081
18,835
12,617
6,45
0,361
-5,627
-11,491
-17,21
-22,763
-28,13
-33,293
-38,235
-42,939
-47,392
-51,58
-55,492
-59,118
-62,449
-65,48
-68,203
-70,617
-72,719
-74,51
-75,991
-77,166
-78,04
-78,62
-78,917
-78,939
-78,7
-78,212
-77,49
-76,549
-75,403
-74,07
-72,565
-70,905
-69,107
-67,187
-65,161
-63,046
-60,859
-58,616
-56,332
-54,023
-51,705
-49,392
-47,098
-44,837
-42,624
-40,469
-38,385
-36,383
-34,474
-32,667
-30,97
-29,391
-27,936
-26,611
-25,418
-24,361
-23,442
-22,662
-22,022
-21,521
-21,158
-20,933
-20,843
-20,888
-21,063
-21,368
-21,798
-22,35
-23,021
-23,808
-24,705
-25,708
-26,812
-28,013
-29,305
-30,683
-32,14
-33,672
-35,271
-36,933
-38,65
-40,417
-42,228
-44,077
-45,959
-47,868
-49,802
-51,754
-53,721
-55,698
-57,683
-59,671
-61,659
-63,644
-65,62
-67,586
-69,537
-71,47
-73,382
-75,269
-77,129
-78,959
-80,756
-82,518
-84,244
-85,931
-87,578
-89,184
-90,748
-92,271
-93,751
-95,19
-96,588
-97,945
-99,263
-100,544
-101,786
-102,993
-104,165
-105,303
-106,409
-107,483
-108,527
-109,544
-110,533
-111,498
-112,442
-113,365
-114,272
-115,164
-116,044
-116,914
-117,778
-118,636
-119,492
-120,347
-121,202
-122,06
-122,921
-123,787
-124,659
-125,535
-126,417
-127,303
-128,194
-129,086
-129,98
-130,873
-131,762
-132,646
-133,522
-134,388
-135,24
-136,075
-136,89
-137,681
-138,443
-139,172
-139,863
-140,51
-141,108
-141,652
-142,135
-142,553
-142,9
-143,171
-143,361
-143,466
-143,48
-143,4
-143,222
-142,942
-142,557
-142,062
-141,457
-140,738
-139,905
-138,957
-137,893
-136,715
-135,422
-134,017
-132,501
-130,877
-129,148
-127,316
-125,387
-123,364
-121,253
-119,06
-116,793
-114,459
-112,066
-109,624
-107,141
-104,626
-102,088
-99,536
-96,978
-94,424
-91,881
-89,359
-86,865
-84,409
-81,998
-79,643
-77,352
-75,134
-72,996
-70,946
-68,992
-67,138
-65,394
-63,763
-62,25
-60,861
-59,602
-58,479
-57,497
-56,663
-55,98
-55,452
-55,082
-54,872
-54,818
-54,919
-55,168
-55,559
-56,088
-56,751
-57,542
-58,461
-59,505
-60,678
-61,98
-63,407
-64,957
-66,62
-68,385
-70,245
-72,191
-74,216
-76,325
-78,515
-80,783
-83,129
-85,544
-88,006
-90,486
-92,936
-95,302
-97,535
-99,588
-101,422
-103,004
-104,304
-105,31
-106,015
-106,395
-106,435
-106,129
-105,475
-104,505
-103,259
-101,798
-100,227
-98,669
-97,248
-96,069
-95,2
-94,721
-94,724
-95,272
-96,429
-98,232
-100,614
-103,558
-107,11
-111,108
-115,289
-119,201
-122,077
-123,406
-123,055
-120,837
-116,527
-110,198
-102,073
-92,991
-84,653
-78,05
-73,224
-69,956
-67,683
-65,504
-62,27
-55,913
-43,08
-20,736
12,992
58,524
115,205
179,448
244,777
307,708
364,425
413,889
461,406
502,645
527,927
526,742
481,137
385,489
249,519
89,496
-64,508
-181,782
-245,46
-250,839
-210,959
-152,866
-98,967
-61,669
-42,466
-31,705
-21,714
-11,39
-2,672
0,294
-3,676
-11,741
-20,488
-27,402
-31,507
-32,929
-32,022
-29,178
-25,017
-20,52
-16,736
-14,192
-12,965
-12,929
-13,845
-15,563
-17,916
-20,608
-23,29
-25,713
-27,784
-29,496
-30,881
-31,92
-32,538
-32,685
-32,355
-31,577
-30,38
-28,783
-26,794
-24,428
-21,745
-18,814
-15,711
-12,511
-9,255
-5,973
-2,694
0,555
3,751
6,871
9,911
12,877
15,766
18,573
21,292
23,914
26,442
28,884
31,245
33,533
35,753
37,908
40,003
42,04
44,019
45,94
47,802
49,599
51,332
53,005
54,62
56,185
57,706
59,19
60,647
62,085
63,511
64,935
66,364
67,805
69,266
70,754
72,279
73,849
75,473
77,16
78,917
80,755
82,679
84,697
86,819
89,049
91,395
93,863
96,46
99,19
102,06
105,076
108,241
111,558
115,03
118,658
122,442
126,38
130,469
134,706
139,084
143,599
148,243
153,008
157,884
162,863
167,932
173,08
178,292
183,556
188,855
194,173
199,496
204,803
210,079
215,305
220,462
225,529
230,489
235,318
239,999
244,508
248,826
252,933
256,807
260,432
263,787
266,857
269,625
272,077
274,199
275,98
277,409
278,478
279,18
279,508
279,461
279,036
278,234
277,058
275,511
273,6
271,332
268,718
265,768
262,495
258,913
255,039
250,889
246,482
241,838
236,979
231,929
226,709
221,345
215,861
210,284
204,637
198,946
193,235
187,53
181,854
176,231
170,682
165,23
159,895
154,697
149,653
144,783
140,099
135,617
131,348
127,305
123,495
119,926
116,607
113,54
110,731
108,181
105,892
103,863
102,092
100,576
99,31
98,288
97,505
96,95
96,617
96,496
96,578
96,852
97,309
97,939
98,731
99,675
100,762
101,98
103,32
104,773
106,329
107,98
109,718
111,534
113,423
115,377
117,391
119,458
121,574
123,733
125,932
128,164
130,425
132,713
135,022
137,35
139,694
142,05
144,416
146,788
149,163
151,539
153,911
156,274
158,623
160,955
163,262
165,538
167,778
169,974
172,118
174,203
176,22
178,161
180,016
181,774
183,426
184,961
186,369
187,638
188,759
189,72
190,512
191,125
191,551
191,779
191,802
191,611
191,201
190,564
189,694
188,589
187,244
185,657
183,827
181,755
179,442
176,893
174,109
171,098
167,864
164,418
160,766
156,919
152,888
148,686
144,324
139,818
135,183
130,432
125,583
120,65
115,652
110,606
105,527
100,433
95,34
90,265
85,223
80,229
75,297
70,441
65,671
61
56,437
51,991
47,669
43,477
39,421
35,505
31,732
28,102
24,617
21,273
18,067
14,997
12,055
9,238
6,537
3,945
1,454
-0,945
-3,261
-5,503
-7,682
-9,813
-11,906
-13,974
-16,03
-18,087
-20,155
-22,248
-24,375
-26,543
-28,762
-31,037
-33,378
-35,79
-38,278
-40,848
-43,506
-46,26
-49,116
-52,076
-55,139
-58,306
-61,572
-64,935
-68,387
-71,916
-75,511
-79,163
-82,867
-86,621
-90,421
-94,26
-98,126
-102,008
-105,895
-109,78
-113,645
-117,464
-121,217
-124,892
-128,489
-132,03
-135,523
-138,964
-142,341
-145,634
-148,828
-151,901
-154,812
-157,497
-159,885
-161,921
-163,585
-164,894
-165,851
-166,454
-166,679
-166,477
-165,84
-164,783
-163,321
-161,475
-159,268
-156,744
-153,994
-151,167
-148,435
-145,964
-143,877
-142,249
-141,138
-140,513
-140,401
-140,918
-141,993
-143,462
-144,995
-145,988
-146,07
-145,232
-143,378
-140,276
-135,912
-130,284
-124,042
-118,871
-115,802
-114,972
-116,182
-118,587
-121,162
-123,388
-123,282
-116,75
-100,551
-72,083
-32,13
13,75
61,392
108,055
157,127
218,662
294,707
380,848
459,5
497,354
474,491
382,089
228,52
51,526
-114,122
-237,103
-295,143
-295,393
-255,809
-201,21
-155,845
-127,535
-113,504
-104,721
-93,892
-80,568
-67,966
-60,929
-60,82
-65,498
-72,538
-79,259
-84,171
-87,225
-88,261
-87,318
-85,043
-82,121
-79,287
-77,318
-76,522
-76,883
-78,387
-80,895
-84,177
-88,004
-92,057
-96,006
-99,716
-103,155
-106,318
-109,237
-111,886
-114,2
-116,167
-117,789
-119,068
-120,016
-120,626
-120,89
-120,843
-120,547
-120,075
-119,507
-118,884
-118,221
-117,535
-116,835
-116,135
-115,446
-114,763
-114,076
-113,38
-112,68
-111,982
-111,293
-110,612
-109,928
-109,231
-108,512
-107,762
-106,976
-106,148
-105,274
-104,352
-103,382
-102,367
-101,313
-100,222
-99,092
-97,921
-96,708
-95,448
-94,137
-92,772
-91,345
-89,854
-88,293
-86,66
-84,952
-83,165
-81,295
-79,338
-77,29
-75,147
-72,904
-70,557
-68,099
-65,528
-62,839
-60,028
-57,092
-54,028
-50,833
-47,506
-44,044
-40,447
-36,714
-32,842
-28,834
-24,69
-20,411
-16
-11,462
-6,801
-2,023
2,865
7,852
12,931
18,091
23,321
28,608
33,939
39,301
44,678
50,054
55,414
60,741
66,016
71,221
76,338
81,347
86,23
90,968
95,54
99,928
104,113
108,075
111,796
115,26
118,447
121,342
123,928
126,192
128,12
129,699
130,92
131,772
132,248
132,344
132,055
131,379
130,317
128,87
127,043
124,841
122,271
119,342
116,066
112,454
108,52
104,279
99,749
94,947
89,892
84,604
79,104
73,414
67,556
61,553
55,428
49,205
42,907
36,559
30,185
23,807
17,451
11,138
4,891
-1,269
-7,321
-13,248
-19,029
-24,65
-30,094
-35,348
-40,4
-45,237
-49,85
-54,231
-58,373
-62,27
-65,918
-69,314
-72,457
-75,346
-77,98
-80,363
-82,497
-84,384
-86,03
-87,439
-88,618
-89,574
-90,315
-90,848
-91,183
-91,329
-91,298
-91,099
-90,744
-90,243
-89,607
-88,849
-87,979
-87,009
-85,948
-84,808
-83,6
-82,334
-81,019
-79,665
-78,281
-76,877
-75,462
-74,043
-72,629
-71,228
-69,849
-68,498
-67,183
-65,911
-64,69
-63,526
-62,425
-61,393
-60,436
-59,559
-58,765
-58,059
-57,443
-56,921
-56,495
-56,165
-55,932
-55,797
-55,759
-55,818
-55,972
-56,22
-56,559
-56,987
-57,501
-58,096
-58,77
-59,518
-60,334
-61,214
-62,15
-63,136
-64,164
-65,227
-66,317
-67,423
-68,538
-69,652
-70,754
-71,835
-72,885
-73,895
-74,855
-75,755
-76,588
-77,343
-78,014
-78,594
-79,075
-79,452
-79,719
-79,872
-79,908
-79,822
-79,614
-79,28
-78,821
-78,236
-77,525
-76,69
-75,734
-74,659
-73,471
-72,175
-70,778
-69,287
-67,711
-66,06
-64,343
-62,572
-60,757
-58,91
-57,041
-55,164
-53,29
-51,43
-49,597
-47,803
-46,059
-44,378
-42,768
-41,24
-39,804
-38,468
-37,239
-36,125
-35,131
-34,262
-33,524
-32,923
-32,461
-32,143
-31,973
-31,95
-32,076
-32,351
-32,772
-33,336
-34,039
-34,874
-35,837
-36,923
-38,128
-39,449
-40,882
-42,425
-44,074
-45,826
-47,676
-49,614
-51,633
-53,721
-55,866
-58,056
-60,285
-62,543
-64,824
-67,125
-69,438
-71,757
-74,075
-76,379
-78,659
-80,908
-83,107
-85,247
-87,328
-89,352
-91,342
-93,315
-95,27
-97,207
-99,124
-101,007
-102,848
-104,63
-106,305
-107,829
-109,16
-110,249
-111,09
-111,679
-111,982
-111,965
-111,567
-110,743
-109,516
-107,919
-105,958
-103,638
-100,93
-97,855
-94,555
-91,191
-87,948
-85,005
-82,416
-80,301
-78,887
-78,258
-78,389
-79,006
-79,456
-79,195
-77,926
-75,269
-71,018
-65,323
-58,486
-51,606
-46,417
-44,184
-46,01
-52,846
-64,558
-80,247
-98,305
-115,269
-127,061
-130,538
-121,935
-97,516
-55,739
4,128
79,095
160,319
240,188
314,528
385,403
462,06
547,98
632,548
689,252
683,582
595,629
434,488
238,925
62,635
-54,486
-101,657
-96,432
-72,154
-54,535
-52,738
-61,642
-68,635
-66,869
-56,774
-43,129
-32,737
-28,397
-29,417
-34,088
-39,624
-44,021
-46,677
-47,093
-45,117
-41,087
-35,327
-28,409
-21,254
-14,757
-9,455
-5,635
-3,35
-2,45
-2,835
-4,402
-6,939
-10,168
-13,819
-17,645
-21,458
-25,17
-28,699
-31,942
-34,796
-37,17
-39,013
-40,332
-41,151
-41,484
-41,334
-40,716
-39,664
-38,249
-36,554
-34,666
-32,666
-30,615
-28,558
-26,539
-24,593
-22,743
-21,002
-19,361
-17,808
-16,336
-14,948
-13,646
-12,43
-11,291
-10,219
-9,2
-8,222
-7,274
-6,346
-5,429
-4,516
-3,603
-2,688
-1,772
-0,857
0,06
0,983
1,918
2,874
3,86
4,884
5,955
7,083
8,276
9,541
10,885
12,313
13,832
15,448
17,167
18,996
20,94
23,007
25,201
27,526
29,987
32,587
35,328
38,212
41,24
44,411
47,726
51,184
54,784
58,524
62,4
66,409
70,545
74,802
79,171
83,646
88,214
92,867
97,591
102,376
107,207
112,072
116,956
121,844
126,72
131,567
136,369
141,106
145,761
150,315
154,749
159,044
163,181
167,141
170,906
174,456
177,773
180,839
183,636
186,148
188,357
190,249
191,809
193,024
193,882
194,373
194,488
194,218
193,559
192,505
191,053
189,203
186,955
184,312
181,277
177,857
174,061
169,898
165,381
160,522
155,339
149,846
144,062
138,008
131,703
125,17
118,433
111,515
104,442
97,239
89,933
82,551
75,118
67,663
60,21
52,787
45,419
38,131
30,949
23,894
16,991
10,262
3,726
-2,597
-8,688
-14,533
-20,116
-25,424
-30,446
-35,172
-39,595
-43,709
-47,509
-50,993
-54,16
-57,012
-59,552
-61,783
-63,713
-65,349
-66,699
-67,776
-68,589
-69,152
-69,478
-69,581
-69,475
-69,176
-68,7
-68,064
-67,282
-66,374
-65,354
-64,24
-63,048
-61,794
-60,495
-59,164
-57,816
-56,467
-55,128
-53,812
-52,532
-51,298
-50,119
-49,004
-47,962
-46,997
-46,115
-45,32
-44,614
-44,001
-43,48
-43,051
-42,715
-42,469
-42,311
-42,239
-42,249
-42,337
-42,498
-42,727
-43,018
-43,368
-43,768
-44,214
-44,7
-45,22
-45,766
-46,335
-46,919
-47,512
-48,11
-48,706
-49,295
-49,873
-50,436
-50,981
-51,505
-52,006
-52,483
-52,935
-53,362
-53,765
-54,143
-54,499
-54,834
-55,149
-55,448
-55,732
-56,005
-56,268
-56,527
-56,782
-57,038
-57,297
-57,561
-57,832
-58,114
-58,408
-58,716
-59,04
-59,382
-59,743
-60,125
-60,529
-60,954
-61,4
-61,866
-62,351
-62,852
-63,366
-63,89
-64,42
-64,95
-65,477
-65,995
-66,498
-66,979
-67,432
-67,851
-68,228
-68,556
-68,829
-69,041
-69,185
-69,257
-69,252
-69,164
-68,99
-68,726
-68,368
-67,913
-67,358
-66,702
-65,943
-65,079
-64,112
-63,041
-61,869
-60,598
-59,23
-57,771
-56,224
-54,596
-52,891
-51,118
-49,284
-47,399
-45,472
-43,515
-41,537
-39,552
-37,57
-35,603
-33,662
-31,757
-29,899
-28,097
-26,361
-24,699
-23,122
-21,637
-20,254
-18,981
-17,824
-16,791
-15,888
-15,118
-14,486
-13,994
-13,644
-13,438
-13,378
-13,465
-13,7
-14,083
-14,612
-15,286
-16,101
-17,053
-18,134
-19,338
-20,655
-22,078
-23,599
-25,211
-26,911
-28,694
-30,558
-32,498
-34,511
-36,592
-38,736
-40,934
-43,176
-45,449
-47,743
-50,05
-52,364
-54,681
-57,001
-59,319
-61,631
-63,932
-66,214
-68,473
-70,701
-72,883
-75,007
-77,067
-79,071
-81,038
-82,989
-84,924
-86,839
-88,724
-90,561
-92,338
-94,03
-95,585
-96,949
-98,068
-98,892
-99,413
-99,634
-99,535
-99,083
-98,226
-96,917
-95,176
-93,064
-90,612
-87,86
-84,825
-81,533
-78,126
-74,776
-71,66
-68,961
-66,786
-65,164
-64,194
-64,047
-64,767
-66,27
-68,198
-69,916
-70,893
-70,793
-69,412
-66,579
-62,341
-56,987
-51,186
-46,174
-43,219
-43,275
-46,683
-53,093
-61,302
-69,596
-75,92
-77,38
-70,812
-53,136
-22,012
23,26
81,67
151,195
228,824
309,999
389,257
460,103
515,92
551,879
564,68
552,228
514,58
454,109
374,989
283,824
188,441
95,812
12,636
-55,212
-104,319
-133,376
-143,047
-136,615
-118,644
-93,666
-66,733
-42,343
-23,225
-10,994
-5,983
-6,961
-12,15
-19,627
-27,112
-32,91
-36,275
-36,836
-34,774
-30,775
-25,565
-20,003
-15,042
-11,214
-8,688
-7,496
-7,465
-8,396
-10,144
-12,452
-15,026
-17,662
-20,196
-22,544
-24,695
-26,595
-28,163
-29,342
-30,093
-30,413
-30,334
-29,868
-29,025
-27,828
-26,311
-24,532
-22,565
-20,476
-18,338
-16,206
-14,119
-12,114
-10,22
-8,456
-6,835
-5,357
-4,008
-2,78
-1,669
-0,673
0,211
0,994
1,689
2,312
2,878
3,401
3,894
4,366
4,826
5,281
5,735
6,193
6,653
7,119
7,597
8,096
8,626
9,199
9,823
10,511
11,272
12,119
13,061
14,106
15,261
16,532
17,926
19,45
21,109
22,907
24,851
26,942
29,183
31,578
34,126
36,83
39,688
42,7
45,865
49,181
52,648
56,263
60,025
63,929
67,973
72,15
76,454
80,878
85,413
90,048
94,772
99,572
104,435
109,346
114,292
119,256
124,224
129,179
134,105
138,984
143,801
148,537
153,175
157,698
162,089
166,329
170,403
174,293
177,981
181,453
184,691
187,679
190,402
192,842
194,987
196,821
198,332
199,508
200,338
200,812
200,925
200,669
200,042
199,04
197,663
195,912
193,791
191,304
188,458
185,261
181,722
177,854
173,669
169,182
164,408
159,365
154,071
148,544
142,805
136,875
130,776
124,529
118,159
111,688
105,141
98,542
91,916
85,288
78,682
72,122
65,631
59,232
52,948
46,798
40,803
34,98
29,348
23,921
18,714
13,738
9,005
4,524
0,302
-3,656
-7,345
-10,764
-13,912
-16,79
-19,401
-21,747
-23,835
-25,671
-27,262
-28,616
-29,743
-30,654
-31,359
-31,872
-32,203
-32,368
-32,38
-32,253
-32,002
-31,643
-31,189
-30,656
-30,058
-29,41
-28,725
-28,017
-27,298
-26,581
-25,876
-25,195
-24,547
-23,941
-23,383
-22,881
-22,439
-22,064
-21,758
-21,525
-21,367
-21,285
-21,282
-21,357
-21,512
-21,744
-22,053
-22,437
-22,894
-23,423
-24,02
-24,682
-25,405
-26,183
-27,014
-27,891
-28,81
-29,764
-30,746
-31,751
-32,774
-33,812
-34,86
-35,913
-36,963
-38,004
-39,03
-40,037
-41,02
-41,975
-42,895
-43,777
-44,621
-45,427
-46,197
-46,929
-47,617
-48,254
-48,831
-49,348
-49,815
-50,235
-50,61
-50,946
-51,243
-51,505
-51,744
-51,959
-52,145
-52,292
-52,387
-52,427
-52,421
-52,381
-52,33
-52,261
-52,139
-51,933
-51,592
-51,11
-50,532
-49,87
-49,116
-48,27
-47,28
-46,189
-45,181
-44,199
-42,997
-41,358
-38,972
-35,868
-32,559
-29,233
-25,73
-22,34
-19,575
-18,037
-18,704
-21,577
-25,502
-29,874
-34,54
-38,953
-42,588
-44,623
-43,591
-39,402
-33,447
-26,555
-19,235
-12,066
-5,259
0,563
4,122
5,277
4,994
3,901
2,532
1,237
-0,108
-1,295
-1,715
-1,287
-0,368
0,782
1,863
2,763
3,658
4,575
5,407
6,146
6,819
7,463
8,157
8,914
9,67
10,39
11,051
11,643
12,192
12,707
13,193
13,652
14,085
14,498
14,897
15,291
15,689
16,098
16,524
16,977
17,468
18,008
18,611
19,285
20,029
20,846
21,736
22,704
23,756
24,895
26,124
27,446
28,865
30,385
32,008
33,737
35,573
37,514
39,559
41,708
43,957
46,303
48,741
51,266
53,868
56,539
59,271
62,052
64,872
67,718
70,578
73,439
76,289
79,116
81,907
84,65
87,331
89,94
92,463
94,889
97,205
99,398
101,459
103,376
105,136
106,73
108,147
109,378
110,413
111,244
111,864
112,265
112,44
112,385
112,096
111,57
110,807
109,808
108,572
107,104
105,408
103,489
101,352
99,002
96,443
93,676
90,706
87,538
84,176
80,623
76,888
72,979
68,905
64,683
60,324
55,842
51,248
46,551
41,759
36,882
31,928
26,911
21,843
16,738
11,61
6,478
1,359
-3,733
-8,79
-13,826
-18,85
-23,86
-28,852
-33,807
-38,698
-43,503
-48,185
-52,698
-56,992
-61,015
-64,714
-68,062
-71,036
-73,624
-75,799
-77,496
-78,668
-79,294
-79,392
-79,022
-78,237
-77,084
-75,617
-73,919
-72,107
-70,328
-68,74
-67,49
-66,691
-66,391
-66,684
-67,764
-69,658
-72,217
-75,05
-77,446
-78,762
-78,578
-76,562
-72,446
-66,347
-58,675
-50,312
-42,792
-37,666
-36,254
-39,166
-46,058
-55,62
-65,751
-73,649
-75,835
-68,312
-46,768
-8,342
47,859
120,754
206,9
301,575
399,413
492,929
572,824
631,091
661,062
661,055
635,538
588,279
521,425
432,642
317,322
180,584
39,044
-79,743
-148,342
-157,398
-117,036
-54,135
2,878
40,19
57,234
63,654
68,709
74,123
77,787
76,587
70,243
61,638
54,089
49,607
48,505
50,418
54,799
61,001
68,237
75,47
81,692
86,497
89,897
92,016
93,09
93,245
92,597
91,427
90,032
88,654
87,473
86,561
85,941
85,682
85,867
86,559
87,802
89,579
91,845
94,578
97,759
101,368
105,37
109,694
114,261
118,984
123,769
128,548
133,261
137,85
142,264
146,458
150,396
154,058
157,437
160,513
163,264
165,664
167,688
169,318
170,543
171,348
171,723
171,656
171,134
170,146
168,68
166,724
164,266
161,294
157,796
153,765
149,199
144,101
138,478
132,34
125,7
118,573
110,98
102,941
94,48
85,624
76,399
66,837
56,971
46,836
36,471
25,915
15,211
4,4
-6,474
-17,365
-28,228
-39,018
-49,688
-60,194
-70,491
-80,534
-90,279
-99,686
-108,712
-117,321
-125,476
-133,144
-140,296
-146,904
-152,947
-158,404
-163,261
-167,505
-171,129
-174,13
-176,508
-178,266
-179,412
-179,959
-179,921
-179,319
-178,175
-176,516
-174,369
-171,769
-168,749
-165,346
-161,601
-157,553
-153,245
-148,72
-144,023
-139,199
-134,293
-129,351
-124,417
-119,535
-114,748
-110,097
-105,62
-101,356
-97,339
-93,6
-90,168
-87,07
-84,327
-81,959
-79,981
-78,405
-77,24
-76,491
-76,159
-76,243
-76,735
-77,628
-78,91
-80,566
-82,578
-84,927
-87,592
-90,548
-93,77
-97,232
-100,906
-104,763
-108,773
-112,906
-117,131
-121,419
-125,739
-130,061
-134,358
-138,601
-142,764
-146,823
-150,756
-154,54
-158,155
-161,586
-164,816
-167,833
-170,625
-173,184
-175,504
-177,581
-179,413
-181,002
-182,349
-183,46
-184,34
-184,995
-185,436
-185,67
-185,71
-185,565
-185,248
-184,771
-184,149
-183,394
-182,52
-181,54
-180,47
-179,321
-178,108
-176,842
-175,535
-174,199
-172,845
-171,483
-170,121
-168,77
-167,436
-166,127
-164,847
-163,603
-162,396
-161,23
-160,105
-159,023
-157,982
-156,982
-156,021
-155,097
-154,21
-153,356
-152,533
-151,74
-150,974
-150,231
-149,511
-148,81
-148,127
-147,46
-146,808
-146,168
-145,542
-144,928
-144,325
-143,735
-143,155
-142,588
-142,031
-141,487
-140,954
-140,434
-139,928
-139,438
-138,964
-138,51
-138,078
-137,67
-137,289
-136,936
-136,615
-136,327
-136,075
-135,859
-135,681
-135,543
-135,444
-135,386
-135,368
-135,391
-135,452
-135,549
-135,682
-135,847
-136,041
-136,262
-136,505
-136,768
-137,048
-137,341
-137,644
-137,954
-138,269
-138,585
-138,899
-139,208
-139,509
-139,8
-140,077
-140,338
-140,581
-140,804
-141,003
-141,178
-141,326
-141,446
-141,534
-141,591
-141,613
-141,601
-141,553
-141,469
-141,348
-141,19
-140,998
-140,77
-140,509
-140,215
-139,89
-139,534
-139,149
-138,735
-138,293
-137,824
-137,327
-136,803
-136,25
-135,668
-135,055
-134,408
-133,726
-133,005
-132,242
-131,435
-130,579
-129,672
-128,711
-127,693
-126,614
-125,472
-124,264
-122,988
-121,641
-120,222
-118,726
-117,153
-115,501
-113,766
-111,948
-110,045
-108,055
-105,976
-103,808
-101,548
-99,196
-96,753
-94,219
-91,597
-88,889
-86,098
-83,23
-80,29
-77,285
-74,222
-71,107
-67,949
-64,755
-61,533
-58,294
-55,044
-51,794
-48,551
-45,325
-42,125
-38,959
-35,836
-32,762
-29,745
-26,791
-23,908
-21,1
-18,376
-15,74
-13,2
-10,762
-8,433
-6,218
-4,122
-2,15
-0,304
1,414
3,003
4,464
5,798
7,007
8,092
9,055
9,895
10,614
11,213
11,695
12,063
12,319
12,472
12,527
12,496
12,388
12,211
11,975
11,684
11,343
10,952
10,509
10,015
9,472
8,882
8,252
7,589
6,901
6,195
5,473
4,725
3,944
3,124
2,259
1,354
0,426
-0,499
-1,376
-2,144
-2,751
-3,148
-3,287
-3,133
-2,663
-1,873
-0,764
0,683
2,472
4,602
7,059
9,797
12,749
15,833
18,911
21,815
24,392
26,497
28,011
28,828
28,837
27,968
26,189
23,497
19,96
15,61
10,43
4,572
-1,597
-7,471
-12,309
-15,608
-17,198
-16,906
-14,434
-9,648
-2,942
4,372
10,736
15,427
18,605
21,063
23,779
27,409
33,402
45,445
67,09
100,245
146,1
201,14
260,66
324,528
388,95
452,381
514,422
562,25
586,914
579,99
532,777
456,504
363,644
266,917
182,312
111,071
53,598
12,304
-14,946
-26,017
-20,844
-4,588
18,451
43,258
64,969
81,44
91,467
94,404
91,332
84,207
75,048
66,076
58,846
53,896
51,528
51,747
54,075
57,903
62,412
66,621
70,003
72,414
73,817
74,352
74,124
73,173
71,691
69,938
68,121
66,42
64,9
63,531
62,33
61,329
60,57
60,121
59,984
60,123
60,53
61,197
62,128
63,334
64,778
66,39
68,1
69,83
71,531
73,179
74,741
76,191
77,507
78,67
79,679
80,551
81,29
81,894
82,358
82,675
82,848
82,894
82,825
82,657
82,402
82,073
81,681
81,242
80,766
80,259
79,728
79,176
78,609
78,039
77,476
76,934
76,426
75,965
75,563
75,235
74,993
74,846
74,804
74,875
75,067
75,389
75,848
76,452
77,207
78,121
79,2
80,448
81,871
83,472
85,252
87,215
89,362
91,691
94,203
96,897
99,77
102,821
106,046
109,44
112,997
116,708
120,566
124,559
128,678
132,909
137,241
141,66
146,152
150,704
155,302
159,931
164,576
169,221
173,85
178,445
182,991
187,469
191,861
196,15
200,319
204,349
208,222
211,92
215,426
218,721
221,787
224,607
227,164
229,443
231,428
233,106
234,464
235,492
236,18
236,521
236,509
236,137
235,403
234,304
232,841
231,014
228,826
226,28
223,385
220,146
216,572
212,676
208,467
203,96
199,168
194,108
188,795
183,249
177,488
171,533
165,405
159,128
152,724
146,218
139,633
132,993
126,325
119,65
112,993
106,378
99,826
93,36
87
80,766
74,677
68,75
63,001
57,443
52,091
46,955
42,044
37,367
32,93
28,739
24,797
21,108
17,672
14,489
11,557
8,872
6,431
4,227
2,253
0,5
-1,041
-2,38
-3,53
-4,503
-5,311
-5,969
-6,491
-6,891
-7,184
-7,387
-7,512
-7,576
-7,591
-7,573
-7,532
-7,483
-7,435
-7,399
-7,385
-7,402
-7,458
-7,56
-7,715
-7,927
-8,203
-8,547
-8,963
-9,453
-10,02
-10,663
-11,386
-12,187
-13,067
-14,025
-15,056
-16,16
-17,335
-18,578
-19,887
-21,257
-22,681
-24,15
-25,658
-27,198
-28,765
-30,352
-31,95
-33,554
-35,163
-36,774
-38,389
-40,005
-41,613
-43,206
-44,776
-46,322
-47,852
-49,371
-50,883
-52,389
-53,891
-55,391
-56,895
-58,406
-59,918
-61,421
-62,9
-64,347
-65,762
-67,163
-68,588
-70,003
-71,356
-72,598
-73,655
-74,54
-75,34
-76,034
-76,582
-77,061
-77,48
-77,922
-78,657
-79,566
-80,277
-80,658
-80,455
-79,341
-77,488
-75,248
-72,726
-70,379
-69,276
-67,928
-64,125
-60,047
-56,221
-57,72
-75,084
-99,673
-128,239
-173,528
-181,932
-89,796
-1,695
-43,304
-114,898
-100,808
-65,666
-62,463
-63,458
-62,771
-66,45
-70,432
-74,04
-76,722
-78,417
-80,085
-81,239
-81,628
-81,618
-81,427
-81,374
-81,575
-81,827
-82,043
-82,268
-82,536
-82,842
-83,132
-83,324
-83,399
-83,412
-83,404
-83,406
-83,418
-83,411
-83,371
-83,294
-83,176
-83,018
-82,817
-82,566
-82,261
-81,897
-81,47
-80,98
-80,422
-79,792
-79,082
-78,286
-77,404
-76,443
-75,408
-74,306
-73,143
-71,922
-70,649
-69,33
-67,972
-66,58
-65,162
-63,723
-62,27
-60,812
-59,355
-57,91
-56,485
-55,088
-53,726
-52,407
-51,138
-49,928
-48,783
-47,709
-46,712
-45,797
-44,969
-44,232
-43,591
-43,05
-42,611
-42,276
-42,045
-41,92
-41,9
-41,983
-42,167
-42,447
-42,821
-43,288
-43,848
-44,501
-45,243
-46,076
-46,998
-48,007
-49,102
-50,275
-51,518
-52,824
-54,184
-55,594
-57,049
-58,543
-60,077
-61,652
-63,267
-64,92
-66,61
-68,328
-70,067
-71,824
-73,593
-75,375
-77,181
-79,019
-80,894
-82,815
-84,779
-86,77
-88,762
-90,711
-92,565
-94,288
-95,839
-97,184
-98,292
-99,124
-99,662
-99,896
-99,803
-99,357
-98,542
-97,347
-95,8
-93,984
-92
-89,97
-88,034
-86,299
-84,854
-83,805
-83,275
-83,398
-84,274
-85,967
-88,469
-91,809
-96,103
-101,298
-107,131
-113,12
-118,482
-122,482
-124,797
-125,193
-123,369
-119,416
-113,585
-106,489
-99,686
-94,703
-92,067
-91,742
-93,127
-94,831
-95,458
-93,128
-84,704
-66,771
-36,503
7,495
64,697
133,493
209,126
286,325
362,138
429,623
487,21
534,91
563,125
570,514
549,511
488,362
393,591
266,627
121,845
-10,694
-115,921
-175,626
-187,537
-172,879
-145,161
-120,728
-107,466
-96,491
-85,077
-71,816
-56,653
-45,995
-42,155
-43,58
-48,737
-54,734
-59,086
-61,231
-61,018
-58,27
-53,5
-47,477
-40,834
-34,376
-28,903
-24,714
-21,899
-20,508
-20,33
-21,145
-22,81
-25,057
-27,61
-30,288
-32,893
-35,303
-37,469
-39,3
-40,726
-41,709
-42,219
-42,256
-41,854
-41,022
-39,783
-38,176
-36,234
-34,015
-31,589
-29,026
-26,412
-23,815
-21,283
-18,86
-16,576
-14,451
-12,499
-10,723
-9,109
-7,65
-6,342
-5,18
-4,164
-3,287
-2,537
-1,9
-1,359
-0,899
-0,507
-0,172
0,115
0,365
0,586
0,783
0,957
1,114
1,263
1,414
1,58
1,773
2,006
2,291
2,645
3,08
3,61
4,248
5,004
5,888
6,913
8,088
9,422
10,926
12,605
14,467
16,518
18,762
21,202
23,841
26,678
29,713
32,944
36,368
39,982
43,78
47,758
51,91
56,227
60,703
65,328
70,092
74,983
79,988
85,093
90,283
95,54
100,849
106,191
111,546
116,897
122,224
127,506
132,725
137,858
142,887
147,79
152,548
157,142
161,552
165,76
169,749
173,502
177,004
180,24
183,196
185,859
188,216
190,256
191,968
193,344
194,375
195,054
195,376
195,338
194,936
194,172
193,045
191,56
189,721
187,534
185,008
182,151
178,976
175,495
171,722
167,672
163,361
158,807
154,027
149,041
143,867
138,524
133,033
127,412
121,682
115,862
109,974
104,038
98,073
92,1
86,14
80,21
74,331
68,521
62,797
57,176
51,673
46,303
41,08
36,017
31,123
26,409
21,883
17,552
13,423
9,498
5,781
2,273
-1,024
-4,111
-6,99
-9,661
-12,128
-14,393
-16,461
-18,336
-20,023
-21,529
-22,86
-24,023
-25,026
-25,878
-26,588
-27,163
-27,615
-27,951
-28,182
-28,317
-28,366
-28,338
-28,242
-28,087
-27,881
-27,634
-27,352
-27,041
-26,709
-26,361
-26,002
-25,636
-25,269
-24,903
-24,544
-24,194
-23,858
-23,539
-23,24
-22,963
-22,713
-22,489
-22,295
-22,132
-21,999
-21,899
-21,83
-21,794
-21,789
-21,815
-21,871
-21,956
-22,067
-22,204
-22,363
-22,544
-22,744
-22,962
-23,195
-23,444
-23,706
-23,983
-24,272
-24,574
-24,889
-25,215
-25,553
-25,901
-26,258
-26,624
-26,996
-27,374
-27,757
-28,142
-28,53
-28,918
-29,306
-29,692
-30,076
-30,455
-30,831
-31,202
-31,568
-31,93
-32,287
-32,642
-32,993
-33,343
-33,692
-34,04
-34,389
-34,737
-35,085
-35,431
-35,776
-36,119
-36,458
-36,793
-37,122
-37,447
-37,764
-38,076
-38,38
-38,677
-38,967
-39,25
-39,526
-39,797
-40,062
-40,322
-40,578
-40,831
-41,082
-41,329
-41,575
-41,818
-42,058
-42,295
-42,528
-42,756
-42,979
-43,197
-43,408
-43,614
-43,815
-44,011
-44,203
-44,393
-44,581
-44,77
-44,961
-45,156
-45,357
-45,565
-45,784
-46,013
-46,256
-46,513
-46,785
-47,074
-47,379
-47,703
-48,044
-48,404
-48,782
-49,179
-49,595
-50,03
-50,484
-50,958
-51,451
-51,962
-52,492
-53,04
-53,604
-54,183
-54,774
-55,376
-55,986
-56,601
-57,216
-57,829
-58,434
-59,028
-59,604
-60,157
-60,682
-61,173
-61,625
-62,031
-62,387
-62,688
-62,927
-63,102
-63,207
-63,237
-63,189
-63,059
-62,842
-62,535
-62,136
-61,642
-61,052
-60,366
-59,583
-58,704
-57,73
-56,665
-55,509
-54,266
-52,939
-51,534
-50,054
-48,504
-46,891
-45,222
-43,504
-41,746
-39,958
-38,148
-36,326
-34,502
-32,684
-30,884
-29,109
-27,37
-25,676
-24,036
-22,462
-20,965
-19,555
-18,242
-17,034
-15,942
-14,972
-14,131
-13,424
-12,854
-12,426
-12,141
-12,002
-12,014
-12,177
-12,497
-12,978
-13,625
-14,439
-15,421
-16,571
-17,884
-19,356
-20,978
-22,74
-24,631
-26,64
-28,762
-30,993
-33,33
-35,762
-38,281
-40,873
-43,525
-46,229
-48,966
-51,711
-54,445
-57,155
-59,845
-62,538
-65,246
-67,963
-70,68
-73,379
-76,04
-78,649
-81,165
-83,518
-85,644
-87,476
-88,981
-90,172
-91,047
-91,582
-91,739
-91,452
-90,686
-89,476
-87,855
-85,829
-83,427
-80,66
-77,59
-74,403
-71,287
-68,413
-65,923
-63,87
-62,291
-61,311
-61,099
-61,684
-62,928
-64,446
-65,681
-66,168
-65,568
-63,645
-60,084
-54,819
-48,28
-41,234
-35,032
-31,318
-31,183
-34,949
-42,622
-53,109
-64,261
-74,123
-79,276
-74,652
-56,235
-21,231
29,477
89,644
153,209
218,084
289,917
377,706
483,018
594,314
680,012
703,903
643,865
499,332
302,584
101,189
-61,183
-156,668
-186,456
-170,154
-136,172
-107,011
-89,358
-80,708
-71,018
-54,23
-32,731
-11,082
4,31
10,184
8,131
0,807
-8,939
-18,523
-26,664
-32,789
-36,329
-37,311
-36,274
-33,842
-30,899
-28,417
-26,884
-26,455
-27,172
-28,847
-31,286
-34,34
-37,714
-41,07
-44,181
-46,931
-49,318
-51,401
-53,194
-54,658
-55,74
-56,415
-56,706
-56,632
-56,205
-55,425
-54,287
-52,825
-51,113
-49,231
-47,256
-45,237
-43,194
-41,149
-39,125
-37,143
-35,222
-33,369
-31,575
-29,839
-28,17
-26,575
-25,067
-23,647
-22,306
-21,035
-19,826
-18,67
-17,563
-16,499
-15,47
-14,473
-13,507
-12,572
-11,671
-10,804
-9,967
-9,156
-8,364
-7,585
-6,811
-6,035
-5,247
-4,438
-3,602
-2,732
-1,819
-0,858
0,159
1,24
2,392
3,623
4,941
6,354
7,868
9,492
11,23
13,09
15,076
17,192
19,441
21,828
24,352
27,016
29,822
32,77
35,859
39,09
42,458
45,962
49,597
53,359
57,241
61,236
65,335
69,531
73,813
78,171
82,595
87,073
91,592
96,139
100,7
105,262
109,809
114,325
118,796
123,203
127,532
131,765
135,887
139,88
143,728
147,415
150,926
154,245
157,357
160,248
162,903
165,31
167,456
169,33
170,921
172,219
173,216
173,905
174,279
174,334
174,066
173,474
172,555
171,312
169,745
167,858
165,657
163,145
160,332
157,226
153,836
150,173
146,251
142,082
137,68
133,06
128,238
123,232
118,057
112,733
107,277
101,707
96,044
90,307
84,515
78,687
72,843
67,003
61,184
55,406
49,686
44,042
38,49
33,047
27,727
22,545
17,514
12,647
7,954
3,446
-0,868
-4,981
-8,885
-12,574
-16,045
-19,293
-22,317
-25,115
-27,687
-30,034
-32,158
-34,063
-35,754
-37,234
-38,511
-39,592
-40,485
-41,198
-41,741
-42,123
-42,356
-42,449
-42,414
-42,262
-42,005
-41,654
-41,22
-40,715
-40,15
-39,536
-38,884
-38,203
-37,503
-36,794
-36,085
-35,385
-34,702
-34,042
-33,413
-32,821
-32,272
-31,769
-31,316
-30,917
-30,572
-30,284
-30,051
-29,873
-29,748
-29,674
-29,648
-29,665
-29,722
-29,814
-29,934
-30,077
-30,237
-30,408
-30,583
-30,757
-30,921
-31,071
-31,201
-31,303
-31,374
-31,406
-31,394
-31,333
-31,219
-31,047
-30,812
-30,511
-30,142
-29,702
-29,19
-28,605
-27,947
-27,217
-26,417
-25,549
-24,618
-23,627
-22,581
-21,487
-20,35
-19,178
-17,978
-16,757
-15,524
-14,287
-13,054
-11,833
-10,632
-9,459
-8,322
-7,228
-6,185
-5,199
-4,277
-3,426
-2,652
-1,96
-1,356
-0,844
-0,428
-0,111
0,104
0,214
0,22
0,121
-0,082
-0,387
-0,793
-1,294
-1,887
-2,567
-3,328
-4,163
-5,065
-6,025
-7,036
-8,089
-9,174
-10,284
-11,407
-12,536
-13,66
-14,772
-15,86
-16,918
-17,936
-18,905
-19,817
-20,663
-21,435
-22,126
-22,729
-23,236
-23,643
-23,942
-24,13
-24,203
-24,158
-23,993
-23,706
-23,295
-22,761
-22,105
-21,328
-20,434
-19,425
-18,306
-17,084
-15,764
-14,353
-12,859
-11,29
-9,653
-7,958
-6,212
-4,425
-2,606
-0,763
1,093
2,951
4,799
6,627
8,424
10,178
11,879
13,516
15,079
16,558
17,947
19,235
20,415
21,477
22,414
23,216
23,877
24,391
24,752
24,956
24,998
24,879
24,597
24,153
23,545
22,775
21,842
20,748
19,492
18,074
16,493
14,75
12,847
10,79
8,585
6,239
3,762
1,163
-1,545
-4,35
-7,243
-10,217
-13,269
-16,395
-19,589
-22,843
-26,146
-29,491
-32,866
-36,254
-39,641
-43,011
-46,358
-49,694
-53,027
-56,36
-59,692
-63,011
-66,296
-69,526
-72,662
-75,642
-78,411
-80,914
-83,112
-85,004
-86,592
-87,876
-88,856
-89,509
-89,82
-89,806
-89,476
-88,833
-87,906
-86,745
-85,45
-84,186
-83,104
-82,307
-81,895
-81,931
-82,474
-83,603
-85,322
-87,548
-90,231
-93,364
-96,854
-100,599
-104,288
-107,248
-108,98
-109,269
-107,89
-104,697
-99,739
-92,998
-85,099
-77,799
-72,387
-69,349
-68,792
-69,954
-71,806
-73,954
-74,471
-68,91
-53,367
-24,959
15,538
62,487
111,328
161,514
218,513
289,557
373,644
458,877
521,432
535,322
488,673
382,792
232,543
63,781
-101,675
-242,098
-336,148
-373,814
-352,564
-282,604
-186,375
-88,039
-9,868
36,632
48,781
34,245
9,741
-13,547
-26,01
-25,799
-21,809
-18,315
-18,406
-22,9
-26,842
-28,414
-28,287
-26,892
-25,919
-26,411
-27,927
-30,178
-33,063
-36,147
-39,086
-41,689
-43,741
-45,156
-46,048
-46,488
-46,483
-46,1
-45,371
-44,314
-42,951
-41,277
-39,283
-36,995
-34,466
-31,773
-29,014
-26,255
-23,53
-20,857
-18,236
-15,67
-13,163
-10,711
-8,304
-5,943
-3,639
-1,414
0,708
2,711
4,592
6,351
7,995
9,525
10,938
12,237
13,422
14,493
15,45
16,286
16,995
17,575
18,027
18,355
18,567
18,667
18,661
18,555
18,36
18,084
17,733
17,316
16,839
16,308
15,734
15,126
14,495
13,851
13,206
12,573
11,968
11,403
10,894
10,454
10,097
9,836
9,684
9,654
9,756
10,001
10,399
10,958
11,688
12,596
13,688
14,969
16,444
18,115
19,984
22,052
24,318
26,78
29,436
32,283
35,316
38,53
41,918
45,471
49,18
53,032
57,016
61,117
65,319
69,604
73,954
78,351
82,774
87,201
91,613
95,987
100,301
104,533
108,661
112,662
116,517
120,202
123,698
126,984
130,042
132,853
135,399
137,665
139,634
141,294
142,63
143,632
144,289
144,594
144,539
144,119
143,333
142,178
140,655
138,769
136,523
133,925
130,984
127,71
124,117
120,219
116,031
111,571
106,857
101,909
96,748
91,394
85,871
80,202
74,409
68,518
62,552
56,535
50,492
44,447
38,423
32,445
26,534
20,713
15,003
9,425
3,999
-1,259
-6,33
-11,2
-15,855
-20,283
-24,472
-28,415
-32,103
-35,532
-38,698
-41,598
-44,231
-46,598
-48,702
-50,546
-52,136
-53,477
-54,578
-55,447
-56,095
-56,531
-56,769
-56,819
-56,696
-56,414
-55,986
-55,427
-54,752
-53,976
-53,114
-52,181
-51,191
-50,159
-49,099
-48,023
-46,945
-45,877
-44,83
-43,814
-42,84
-41,916
-41,05
-40,25
-39,523
-38,875
-38,309
-37,832
-37,446
-37,155
-36,96
-36,862
-36,864
-36,965
-37,164
-37,462
-37,856
-38,345
-38,926
-39,597
-40,355
-41,197
-42,119
-43,118
-44,19
-45,331
-46,539
-47,81
-49,14
-50,526
-51,965
-53,453
-54,986
-56,563
-58,178
-59,83
-61,515
-63,23
-64,971
-66,735
-68,517
-70,313
-72,12
-73,932
-75,744
-77,551
-79,348
-81,129
-82,888
-84,62
-86,319
-87,978
-89,591
-91,152
-92,653
-94,089
-95,451
-96,734
-97,93
-99,032
-100,034
-100,929
-101,712
-102,376
-102,915
-103,325
-103,6
-103,735
-103,726
-103,569
-103,263
-102,806
-102,197
-101,437
-100,528
-99,473
-98,275
-96,939
-95,469
-93,871
-92,153
-90,32
-88,383
-86,349
-84,228
-82,033
-79,774
-77,464
-75,114
-72,738
-70,348
-67,956
-65,575
-63,216
-60,892
-58,613
-56,392
-54,241
-52,173
-50,199
-48,33
-46,577
-44,948
-43,452
-42,096
-40,884
-39,821
-38,909
-38,152
-37,553
-37,114
-36,839
-36,731
-36,793
-37,023
-37,423
-37,988
-38,713
-39,591
-40,609
-41,756
-43,022
-44,398
-45,874
-47,446
-49,11
-50,859
-52,687
-54,584
-56,54
-58,544
-60,58
-62,634
-64,692
-66,748
-68,808
-70,881
-72,971
-75,077
-77,187
-79,276
-81,317
-83,275
-85,104
-86,756
-88,183
-89,339
-90,19
-90,72
-90,926
-90,798
-90,3
-89,402
-88,094
-86,383
-84,319
-81,976
-79,414
-76,721
-74,011
-71,372
-68,939
-66,874
-65,305
-64,352
-64,094
-64,528
-65,715
-67,784
-70,683
-74,197
-77,941
-81,243
-83,521
-84,554
-84,105
-81,884
-77,96
-72,596
-66,337
-60,548
-56,649
-55,086
-55,81
-58,456
-61,767
-64,124
-63,892
-58,321
-43,566
-16,873
22,853
76,064
139,392
205,92
272,95
338,207
400,033
463,725
524,975
571,052
590,873
565,791
487,008
364,392
212,729
59,242
-64,348
-143,247
-172,655
-159,087
-126,546
-89,581
-53,723
-27,75
-6,36
10,075
12,817
8,414
-1,414
-13,676
-18,087
-18,144
-17,007
-14,454
-14,148
-13,967
-11,279
-7,168
-1,981
3,295
7,241
9,81
11,254
11,48
10,586
8,777
6,19
3,073
-0,262
-3,65
-6,989
-10,156
-13,108
-15,792
-18,118
-20,032
-21,499
-22,503
-23,065
-23,197
-22,899
-22,187
-21,088
-19,654
-17,954
-16,054
-14,021
-11,907
-9,745
-7,571
-5,414
-3,292
-1,221
0,801
2,78
4,719
6,613
8,458
10,249
11,988
13,68
15,331
16,949
18,54
20,106
21,653
23,18
24,687
26,174
27,636
29,069
30,469
31,836
33,172
34,483
35,772
37,045
38,306
39,563
40,823
42,091
43,373
44,676
46,006
47,369
48,774
50,228
51,738
53,315
54,965
56,696
58,517
60,436
62,458
64,591
66,84
69,209
71,704
74,329
77,087
79,981
83,012
86,183
89,491
92,938
96,52
100,233
104,074
108,035
112,109
116,288
120,563
124,922
129,354
133,847
138,388
142,961
147,551
152,142
156,717
161,258
165,746
170,162
174,486
178,7
182,782
186,715
190,477
194,051
197,418
200,56
203,459
206,099
208,464
210,539
212,309
213,763
214,89
215,678
216,121
216,211
215,943
215,315
214,325
212,973
211,261
209,191
206,771
204,006
200,907
197,483
193,746
189,712
185,395
180,813
175,984
170,926
165,661
160,209
154,591
148,829
142,946
136,964
130,906
124,795
118,654
112,505
106,371
100,273
94,231
88,267
82,398
76,643
71,019
65,543
60,229
55,09
50,141
45,392
40,854
36,535
32,443
28,582
24,958
21,573
18,427
15,522
12,855
10,424
8,226
6,257
4,51
2,98
1,66
0,542
-0,382
-1,122
-1,687
-2,086
-2,329
-2,427
-2,39
-2,226
-1,947
-1,561
-1,079
-0,51
0,137
0,851
1,623
2,444
3,305
4,198
5,114
6,046
6,987
7,93
8,87
9,8
10,716
11,613
12,485
13,328
14,139
14,914
15,65
16,344
16,993
17,596
18,15
18,654
19,105
19,501
19,841
20,123
20,346
20,508
20,608
20,646
20,621
20,533
20,384
20,173
19,902
19,572
19,185
18,742
18,246
17,699
17,103
16,462
15,78
15,059
14,304
13,519
12,708
11,875
11,025
10,164
9,296
8,428
7,564
6,712
5,878
5,067
4,287
3,544
2,844
2,193
1,596
1,058
0,586
0,182
-0,149
-0,403
-0,578
-0,671
-0,681
-0,608
-0,451
-0,211
0,11
0,51
0,988
1,54
2,165
2,859
3,618
4,437
5,31
6,233
7,196
8,193
9,214
10,251
11,293
12,332
13,358
14,361
15,333
16,266
17,149
17,975
18,733
19,417
20,016
20,523
20,933
21,238
21,437
21,524
21,496
21,352
21,091
20,71
20,208
19,58
18,822
17,931
16,905
15,743
14,443
13,007
11,439
9,747
7,941
6,032
4,03
1,945
-0,216
-2,446
-4,738
-7,089
-9,495
-11,953
-14,46
-17,011
-19,596
-22,206
-24,833
-27,476
-30,146
-32,851
-35,588
-38,358
-41,149
-43,94
-46,706
-49,399
-51,949
-54,286
-56,334
-58,025
-59,311
-60,158
-60,559
-60,499
-59,954
-58,92
-57,409
-55,457
-53,131
-50,504
-47,656
-44,718
-41,874
-39,328
-37,313
-36,029
-35,633
-36,222
-37,819
-40,437
-44,082
-48,721
-54,305
-60,699
-67,656
-74,931
-82,258
-89,269
-95,588
-100,699
-103,902
-104,74
-102,991
-98,671
-92,235
-84,072
-74,271
-63,142
-51,12
-38,053
-23,489
-6,311
15,672
44,059
79,521
122,617
173,117
229,284
288,45
346,451
397,24
435,606
457,642
459,835
440,463
400,196
341,557
269,458
191,295
114,003
43,242
-15,648
-59,112
-85,749
-95,923
-92,322
-79,821
-63,267
-46,334
-32,299
-23,271
-20,168
-23,162
-31,158
-41,825
-52,704
-62,187
-69,224
-73,428
-74,941
-73,908
-70,785
-66,461
-61,958
-58,016
-55,034
-53,11
-52,129
-52,041
-52,818
-54,354
-56,483
-59,01
-61,763
-64,616
-67,477
-70,284
-72,968
-75,457
-77,68
-79,57
-81,094
-82,253
-83,058
-83,511
-83,609
-83,349
-82,739
-81,834
-80,691
-79,377
-77,964
-76,504
-75,037
-73,608
-72,25
-70,986
-69,832
-68,786
-67,837
-66,983
-66,228
-65,576
-65,031
-64,586
-64,231
-63,955
-63,744
-63,588
-63,477
-63,401
-63,351
-63,323
-63,316
-63,329
-63,366
-63,427
-63,509
-63,607
-63,717
-63,829
-63,938
-64,034
-64,107
-64,147
-64,145
-64,09
-63,974
-63,788
-63,524
-63,172
-62,723
-62,166
-61,494
-60,698
-59,771
-58,707
-57,499
-56,143
-54,638
-52,981
-51,174
-49,217
-47,11
-44,855
-42,452
-39,904
-37,212
-34,381
-31,413
-28,314
-25,093
-21,76
-18,326
-14,806
-11,216
-7,576
-3,904
-0,218
3,464
7,122
10,737
14,288
17,754
21,117
24,351
27,432
30,332
33,021
35,473
37,664
39,576
41,192
42,499
43,484
44,136
44,454
44,43
44,052
43,303
42,15
40,576
38,583
36,181
33,401
30,274
26,823
23,087
19,123
14,968
10,652
6,183
1,526
-3,332
-8,379
-13,58
-18,863
-24,174
-29,505
-34,86
-40,257
-45,723
-51,276
-56,972
-62,934
-69,246
-75,941
-82,987
-90,246
-97,59
-104,945
-112,255
-119,496
-126,623
-133,521
-140,055
-146,119
-151,602
-156,39
-160,32
-163,111
-164,516
-164,395
-162,715
-159,596
-155,189
-149,584
-142,88
-135,204
-126,713
-117,646
