Name
Date of Birth,"23. May 1994"
Recorded Date,2020-04-02 19:44:19 +0200
Classification,Heart Rate Over 120
Symptoms,
Software Version,1.52
Device,"Watch5,1"
Sample Rate,511,422 hertz


Lead,Lead I
Unit,µV

-326,784
-466,94
-588,339
-672,456
-723,291
-754,269
-776,016
-798,908
-821,899
-836,588
-839,629
-829,37
-808,386
-783,273
-756,873
-729,451
-700,675
-669,293
-635,144
-598,896
-560,119
-518,022
-472,622
-424,732
-375,794
-327,035
-278,628
-230,054
-181,22
-132,378
-83,58
-34,478
15,77
67,782
121,325
175,514
229,555
283,004
335,613
387,161
437,194
485,267
531,263
575,357
617,725
658,346
697,015
733,408
767,244
798,357
826,604
851,868
874,075
893,17
909,12
921,926
931,616
938,242
941,895
942,674
940,696
936,16
929,333
920,546
910,177
898,559
885,962
872,612
858,73
844,563
830,395
816,532
803,253
790,799
779,393
769,243
760,516
753,292
747,566
743,244
740,195
738,315
737,534
737,805
739,068
741,227
744,156
747,695
751,672
755,924
760,269
764,519
768,532
772,242
775,652
778,839
781,904
784,905
787,881
790,841
793,77
796,661
799,485
802,233
804,925
807,583
810,258
813,019
815,897
818,866
821,872
824,811
827,562
830,054
832,226
834,05
835,552
836,779
837,822
838,768
839,665
840,548
841,432
842,312
843,187
844,066
844,929
845,776
846,627
847,457
848,259
848,986
849,522
849,749
849,499
848,619
847,024
844,602
841,235
836,928
831,763
825,967
819,997
814,247
809,064
804,951
802,227
800,959
801,12
802,165
803,218
803,591
802,35
798,491
791,807
782,747
772,143
761,815
754,052
751,149
756,42
773,604
803,347
843,153
890,539
941,837
998,325
1067,163
1147,716
1232,901
1307,417
1346,899
1337,647
1278,981
1178,886
1054,823
923,187
795,617
684,208
600,323
551,509
541,485
566,211
615,079
674,589
729,979
771,76
794,307
799,06
795,342
789,554
786,92
787,898
786,213
779,118
766,081
748,643
731,405
716,799
705,726
698,603
694,666
693,255
693,682
694,855
696,118
697,14
697,605
697,482
696,846
695,822
694,852
694,491
695,062
696,752
699,637
703,689
708,929
715,341
722,825
731,257
740,526
750,563
761,334
772,806
784,901
797,504
810,457
823,574
836,677
849,553
861,98
873,706
884,45
894,008
902,215
908,944
914,114
917,619
919,368
919,296
917,347
913,489
907,725
900,068
890,575
879,384
866,682
852,741
837,895
822,431
806,613
790,659
774,733
759,006
743,625
728,707
714,37
700,733
687,92
676,076
665,299
655,61
646,982
639,298
632,38
626,062
620,161
614,534
609,084
603,73
598,417
593,125
587,822
582,471
577,015
571,362
565,442
559,222
552,686
545,876
538,864
531,729
524,58
517,509
510,568
503,794
497,201
490,777
484,519
478,42
472,472
466,695
461,104
455,704
450,499
445,466
440,566
435,755
430,971
426,157
421,275
416,288
411,172
405,913
400,499
394,932
389,225
383,381
377,398
371,284
365,047
358,717
352,342
345,968
339,631
333,355
327,169
321,103
315,204
309,524
304,087
298,873
293,848
288,965
284,184
279,508
274,898
270,23
265,447
260,557
255,655
251,046
247,006
243,552
240,649
238,269
236,143
233,989
231,451
227,603
221,446
212,607
201,01
186,932
171,435
155,556
140,126
127,159
119,478
119,099
127,597
144,074
164,259
184,839
205,192
230,067
266,813
317,7
376,12
420,452
425,719
378,777
280,935
158,027
44,612
-38,246
-81,193
-94,729
-97,307
-93,634
-82,521
-58,315
-16,931
28,437
58,576
61,687
33,977
-12,352
-56,572
-88,874
-106,02
-110,142
-107,943
-97,141
-73,641
-39,445
-4,395
14,684
4,011
-40,619
-103,073
-158,245
-187,988
-180,329
-145,356
-105,149
-73,467
-61,381
-66,948
-77,786
-87,842
-92,981
-92,388
-90,307
-88,125
-85,537
-82,738
-79,03
-74,224
-68,902
-63,253
-57,261
-51,014
-44,555
-37,851
-30,892
-23,666
-16,131
-8,308
-0,31
7,743
15,727
23,487
30,827
37,571
43,524
48,48
52,295
54,845
56,024
55,777
54,059
50,845
46,153
40,022
32,503
23,699
13,726
2,728
-9,096
-21,561
-34,481
-47,651
-60,91
-74,119
-87,146
-99,895
-112,292
-124,268
-135,784
-146,821
-157,36
-167,404
-176,968
-186,077
-194,794
-203,176
-211,277
-219,153
-226,834
-234,345
-241,71
-248,939
-256,036
-262,991
-269,774
-276,349
-282,687
-288,764
-294,567
-300,08
-305,281
-310,147
-314,646
-318,761
-322,496
-325,838
-328,774
-331,292
-333,372
-335,034
-336,348
-337,375
-338,18
-338,813
-339,301
-339,681
-339,998
-340,288
-340,598
-340,965
-341,419
-342,039
-342,923
-344,147
-345,774
-347,782
-350,092
-352,66
-355,474
-358,494
-361,639
-364,86
-368,211
-371,885
-376,109
-380,932
-386,147
-391,443
-396,683
-401,711
-406,185
-409,533
-411,095
-410,633
-408,584
-405,711
-402,494
-399,289
-396,599
-395,285
-396,449
-400,611
-407,315
-415,468
-424,217
-433,122
-441,729
-449,185
-454,364
-456,559
-456,017
-453,966
-451,485
-448,815
-446,094
-443,738
-442,025
-441,059
-440,269
-437,701
-433,01
-428,535
-425,515
-423,469
-417,728
-399,903
-367,695
-328,319
-297,169
-291,105
-316,577
-366,015
-421,721
-467,186
-495,03
-506,923
-510,65
-512,17
-513,069
-513,053
-510,991
-506,701
-501,322
-496,141
-492,253
-490,493
-491,054
-493,297
-496,065
-498,515
-500,241
-501,091
-501,099
-500,059
-497,765
-494,393
-490,349
-485,972
-481,423
-476,677
-471,605
-466,191
-460,493
-454,513
-448,217
-441,553
-434,486
-427,032
-419,253
-411,193
-402,865
-394,278
-385,432
-376,342
-367,062
-357,635
-348,098
-338,491
-328,842
-319,16
-309,446
-299,675
-289,806
-279,836
-269,778
-259,658
-249,548
-239,52
-229,665
-220,105
-210,928
-202,211
-194,033
-186,439
-179,481
-173,236
-167,788
-163,243
-159,735
-157,339
-156,102
-156,052
-157,156
-159,363
-162,587
-166,686
-171,535
-177,035
-183,087
-189,623
-196,58
-203,863
-211,374
-219,007
-226,622
-234,116
-241,404
-248,4
-255,066
-261,384
-267,361
-273,049
-278,496
-283,721
-288,734
-293,528
-298,084
-302,405
-306,49
-310,335
-313,957
-317,368
-320,575
-323,595
-326,427
-329,06
-331,473
-333,625
-335,478
-337,016
-338,235
-339,141
-339,752
-340,085
-340,16
-340,012
-339,665
-339,142
-338,464
-337,641
-336,689
-335,632
-334,499
-333,331
-332,168
-331,036
-329,959
-328,953
-328,023
-327,17
-326,388
-325,65
-324,935
-324,233
-323,539
-322,864
-322,22
-321,613
-321,05
-320,524
-320,031
-319,571
-319,136
-318,728
-318,37
-318,081
-317,901
-317,885
-318,052
-318,441
-319,098
-320,051
-321,339
-322,954
-324,814
-326,892
-329,213
-331,724
-334,344
-336,833
-338,741
-339,857
-340,183
-339,681
-338,38
-336,326
-333,521
-330,461
-328,092
-326,91
-327,058
-328,346
-330,122
-331,873
-333,122
-332,749
-329,282
-321,312
-307,43
-287,108
-260,567
-229,61
-198,028
-168,677
-142,828
-117,457
-86,615
-49,853
-13,912
6,595
-4,413
-51,527
-125,654
-207,011
-275,782
-322,343
-348,603
-364,895
-377,37
-385,557
-384,784
-366,058
-331,443
-292,532
-260,665
-250,178
-262,542
-285,49
-308,996
-321,65
-319,883
-311,572
-301,581
-293,404
-288,407
-283,081
-276,007
-267,845
-259,061
-250,628
-242,918
-235,472
-228,065
-220,763
-213,561
-206,421
-199,294
-192,117
-184,861
-177,546
-170,185
-162,753
-155,235
-147,637
-139,953
-132,168
-124,272
-116,26
-108,118
-99,814
-91,291
-82,473
-73,277
-63,664
-53,63
-43,184
-32,348
-21,125
-9,51
2,479
14,79
27,355
40,076
52,833
65,503
77,902
89,801
100,968
111,145
120,099
127,659
133,654
137,928
140,349
140,784
139,127
135,36
129,491
121,574
111,727
100,084
86,853
72,326
56,786
40,542
23,907
7,149
-9,453
-25,592
-41,006
-55,444
-68,66
-80,503
-90,848
-99,597
-106,724
-112,233
-116,183
-118,712
-119,96
-120,063
-119,189
-117,489
-115,139
-112,366
-109,357
-106,274
-103,299
-100,55
-98,129
-96,141
-94,629
-93,605
-93,072
-92,99
-93,297
-93,956
-94,906
-96,076
-97,407
-98,816
-100,206
-101,506
-102,701
-103,791
-104,77
-105,644
-106,375
-106,914
-107,329
-107,74
-107,988
-107,858
-107,519
-106,986
-106,235
-105,789
-104,291
-100,404
-95,98
-91,581
-90,636
-97,267
-106,919
-116,538
-121,593
-115,859
-104,791
-93,018
-83,716
-82,152
-84,604
-87,344
-89,642
-89,31
-87,814
-86,965
-86,471
-86,556
-87,095
-87,709
-88,657
-90,175
-92,119
-94,392
-96,851
-99,256
-101,505
-103,428
-104,577
-104,49
-103,119
-100,689
-97,723
-94,845
-92,138
-89,543
-87,194
-85,257
-83,063
-78,807
-70,284
-55,315
-34,445
-10,799
13,62
38,872
70,067
114,356
172,741
237,623
289,465
305,126
270,197
184,702
68,777
-48,771
-141,437
-194,281
-212,196
-206,648
-191,519
-175,397
-153,195
-123,816
-90,11
-57,057
-38,234
-37,14
-46,165
-58,497
-63,821
-58,991
-50,745
-42,64
-37,255
-35,195
-32,731
-28,436
-22,894
-16,403
-9,939
-4,151
1,121
5,856
9,922
13,512
16,924
20,383
24,076
28,079
32,315
36,75
41,424
46,369
51,633
57,249
63,27
69,809
77,029
85,119
94,173
104,169
115,011
126,577
138,789
151,621
165,038
178,974
193,35
208,045
222,922
237,848
252,597
266,874
280,346
292,648
303,505
312,759
320,296
326,042
329,936
331,897
331,885
329,905
325,941
320,025
312,249
302,732
291,707
279,495
266,422
252,851
239,116
225,458
212,099
199,222
186,957
175,445
164,81
155,155
146,623
139,32
133,273
128,481
124,865
122,271
120,553
119,529
118,989
118,785
118,796
118,925
119,136
119,38
119,592
119,713
119,652
119,333
118,731
117,83
116,644
115,23
113,644
111,965
110,312
108,76
107,349
106,108
105,022
104,079
103,285
102,64
102,154
101,842
101,701
101,725
101,903
102,196
102,558
102,936
103,257
103,477
103,568
103,512
103,319
103,014
102,615
102,151
101,637
101,063
100,421
99,707
98,923
98,1
97,265
96,429
95,609
94,811
94,042
93,305
92,575
91,806
90,929
89,872
88,597
87,091
85,346
83,364
81,099
78,449
75,427
72,155
68,851
65,878
63,546
62,087
61,808
62,993
65,659
69,501
73,77
77,294
78,943
77,825
73,326
65,338
54,433
41,922
29,727
20,578
17,794
24,352
42,541
72,059
109,672
151,968
196,777
246,055
303,612
368,111
431,791
478,706
491,005
460,224
387,069
283,345
168,52
60,632
-22,807
-70,628
-82,132
-64,86
-34,628
-6,235
12,678
21,862
27,55
34,291
42,422
49,912
53,205
51,403
46,23
39,609
33,563
29,118
26,365
25,567
26,758
29,553
33,755
39,053
44,666
50,328
56,032
61,217
67,316
75,709
84,484
93,173
98,398
96,019
90,761
85,726
85,518
96,549
113,188
130,614
145,537
152,492
155,391
158,339
162,28
169,478
178,278
186,61
194,657
202,316
209,87
217,511
225,005
232,561
241,052
251,531
264,533
279,842
296,446
313,326
329,797
344,578
356,826
366,934
373,228
373,589
365,576
343,111
307,653
268,341
234,81
220,815
229,11
248,788
269,974
281,691
280,54
273,841
265,757
258,247
251,598
242,436
230,026
215,969
201,073
186,183
171,734
157,662
144,235
131,83
120,368
109,434
98,837
88,634
78,985
70,117
62,129
54,978
48,674
43,303
38,915
35,528
33,125
31,632
30,955
30,989
31,639
32,821
34,466
36,517
38,9
41,554
44,413
47,414
50,519
53,694
56,883
60,02
63,017
65,765
68,215
70,364
72,182
73,637
74,666
75,166
75,087
74,396
73,067
71,091
68,455
65,148
61,228
56,79
51,954
46,871
41,633
36,289
30,91
25,533
20,207
14,999
9,932
5,031
0,328
-4,185
-8,528
-12,731
-16,892
-21,101
-25,476
-30,237
-35,445
-41,038
-46,862
-52,522
-57,676
-62,186
-65,792
-68,152
-69,284
-69,371
-68,927
-69,047
-70,436
-73,267
-77,878
-84,499
-92,768
-101,996
-110,681
-116,381
-117,357
-112,368
-99,729
-77,894
-45,751
-4,304
42,196
89,106
133,022
176,334
227,069
287,65
353,771
410,082
431,282
404,018
329,841
224,491
116,31
24,652
-44,368
-92,972
-129,812
-159,386
-181,007
-192,892
-193,366
-184,026
-168,233
-149,483
-131,634
-116,916
-106,242
-100,113
-97,894
-98,386
-100,655
-103,465
-105,363
-105,608
-103,832
-99,891
-94,207
-87,312
-79,631
-71,734
-64,18
-57,218
-50,958
-45,396
-40,371
-35,751
-31,413
-27,18
-22,867
-18,319
-13,44
-8,178
-2,483
3,715
10,509
17,994
26,206
35,144
44,799
55,139
66,136
77,738
89,844
102,343
115,104
127,956
140,737
153,279
165,368
176,808
187,402
196,93
205,239
212,214
217,747
221,774
224,243
225,121
224,423
222,192
218,484
213,403
207,07
199,629
191,284
182,222
172,622
162,689
152,576
142,413
132,331
122,421
112,762
103,427
94,461
85,884
77,719
69,963
62,595
55,582
48,855
42,347
36,009
29,806
23,725
17,761
11,918
6,187
0,565
-4,913
-10,205
-15,336
-20,331
-25,195
-29,946
-34,516
-38,785
-42,764
-46,513
-49,817
-52,439
-54,527
-56,079
-57,073
-58,057
-57,68
-54,635
-50,868
-46,983
-46,53
-53,748
-63,993
-74,18
-79,702
-74,224
-63,41
-52,058
-43,462
-43,05
-46,974
-51,32
-55,216
-56,251
-55,782
-55,585
-55,315
-55,209
-55,176
-54,867
-54,535
-54,387
-54,347
-54,395
-54,545
-54,759
-55,003
-55,273
-55,563
-55,922
-56,481
-57,315
-58,45
-59,874
-61,543
-63,443
-65,559
-67,851
-70,29
-72,797
-75,346
-78,032
-80,885
-83,851
-86,67
-88,772
-89,73
-89,404
-87,702
-84,615
-80,207
-74,557
-68,456
-63,346
-60,16
-59,362
-60,85
-63,877
-68,052
-72,575
-74,936
-72,005
-61,232
-42,649
-19,834
3,766
27,976
58,706
104,104
166,187
236,582
292,436
307,541
265,334
165,368
31,054
-104,405
-210,613
-268,822
-282,449
-266,089
-238,259
-213,393
-194,213
-178,328
-160,858
-139,184
-115,267
-92,641
-75,627
-66,563
-65,421
-70,583
-78,99
-88,026
-96,339
-103,042
-107,618
-109,795
-109,069
-105,638
-100,641
-95,063
-89,514
-84,303
-79,334
-74,527
-70,077
-65,947
-61,797
-57,38
-52,515
-47,149
-41,446
-35,513
-29,321
-22,87
-16,173
-9,228
-2,06
5,327
12,99
20,97
29,277
37,915
46,868
56,113
65,628
75,373
85,298
95,349
105,436
115,435
125,19
134,525
143,268
151,263
158,342
164,324
169,052
172,398
174,27
174,62
173,424
170,687
166,434
160,716
153,63
145,31
135,926
125,675
114,743
103,3
91,529
79,624
67,764
56,106
44,776
33,863
23,445
13,582
4,317
-4,329
-12,364
-19,823
-26,761
-33,252
-39,351
-45,099
-50,538
-55,711
-60,652
-65,389
-69,93
-74,27
-78,405
-82,336
-86,057
-89,559
-92,821
-95,815
-98,51
-100,868
-102,864
-104,489
-105,734
-106,603
-107,11
-107,272
-107,12
-106,689
-106,01
-105,109
-104,015
-102,755
-101,353
-99,835
-98,229
-96,566
-94,887
-93,23
-91,622
-90,084
-88,629
-87,258
-85,973
-84,759
-83,59
-82,441
-81,28
-80,088
-78,87
-77,633
-76,382
-75,119
-73,825
-72,487
-71,115
-69,717
-68,299
-66,883
-65,492
-64,182
-63,047
-62,176
-61,649
-61,531
-61,866
-62,693
-64,032
-65,865
-68,145
-70,831
-73,916
-77,346
-80,966
-84,501
-87,632
-90,112
-91,886
-92,887
-92,815
-91,505
-89,033
-85,864
-82,847
-80,543
-78,876
-77,564
-76,554
-75,69
-74,739
-72,439
-66,348
-54,483
-35,411
-10,385
17,055
45,036
72,001
100,888
139,336
187,431
241,414
289,776
309,089
288,065
222,365
114,131
-14,137
-144,681
-258,358
-328,418
-345,026
-305,135
-219,509
-122,081
-44,082
-6,624
-14,947
-51,023
-90,298
-116,267
-122,536
-114,734
-104,506
-98,056
-96,572
-98,395
-99,376
-97,895
-94,641
-90,217
-85,654
-81,605
-77,9
-74,41
-71,111
-67,791
-64,303
-60,602
-56,564
-52,107
-47,262
-42,058
-36,522
-30,704
-24,61
-18,211
-11,466
-4,313
3,333
11,563
20,448
30,013
40,25
51,12
62,564
74,546
87,048
100,033
113,451
127,225
141,246
155,382
169,46
183,241
196,433
208,725
219,845
229,599
237,835
244,432
249,29
252,319
253,443
252,623
249,835
245,063
238,345
229,771
219,497
207,783
194,957
181,363
167,329
153,116
138,938
124,99
111,436
98,415
86,063
74,49
63,818
54,187
45,692
38,372
32,214
27,11
22,899
19,403
16,427
13,817
11,468
9,288
7,221
5,236
3,293
1,358
-0,617
-2,715
-5,001
-7,506
-10,248
-13,187
-16,249
-19,353
-22,388
-25,263
-27,928
-30,343
-32,5
-34,415
-36,103
-37,58
-38,868
-39,955
-40,833
-41,508
-41,984
-42,285
-42,458
-42,546
-42,607
-42,703
-42,875
-43,152
-43,545
-44,039
-44,603
-45,21
-45,827
-46,434
-47,022
-47,562
-48,041
-48,45
-48,777
-49,025
-49,203
-49,305
-49,334
-49,323
-49,31
-49,362
-49,58
-50,052
-50,854
-52,066
-53,745
-55,942
-58,709
-62,08
-66,046
-70,575
-75,599
-81,01
-86,767
-92,863
-99,14
-105,305
-110,971
-115,675
-119,173
-121,452
-122,223
-121,02
-117,74
-112,66
-106,491
-100,277
-94,403
-88,523
-82,71
-77,387
-72,301
-66,366
-57,551
-43,013
-22,57
0,802
24,985
48,477
75,057
113,533
167,415
235,02
301,681
341,108
333,471
267,158
151,99
18,644
-102,989
-186,387
-223,006
-222,505
-196,068
-158,12
-117,722
-79,88
-54,2
-46,392
-58,289
-85,865
-115,967
-137,321
-144,938
-140,041
-130,399
-122,447
-118,035
-116,255
-114,168
-110,19
-104,759
-98,706
-92,918
-87,609
-82,491
-77,432
-72,382
-67,349
-62,369
-57,403
-52,376
-47,223
-41,861
-36,243
-30,371
-24,258
-17,921
-11,357
-4,53
2,582
9,97
17,652
25,666
34,075
42,97
52,386
62,307
72,696
83,486
94,637
106,135
117,937
129,99
142,241
154,603
166,986
179,285
191,317
202,855
213,673
223,521
232,206
239,581
245,481
249,786
252,399
253,23
252,238
249,398
244,66
238,018
229,514
219,242
207,411
194,283
180,106
165,162
149,707
133,989
118,295
102,868
87,889
73,534
59,938
47,245
35,649
25,306
16,302
8,674
2,367
-2,719
-6,659
-9,569
-11,584
-12,853
-13,569
-13,881
-13,874
-13,627
-13,208
-12,707
-12,262
-11,981
-11,92
-12,117
-12,566
-13,245
-14,154
-15,258
-16,492
-17,781
-19,025
-20,165
-21,185
-22,082
-22,852
-23,483
-23,941
-24,21
-24,298
-24,216
-23,982
-23,62
-23,151
-22,611
-22,052
-21,529
-21,102
-20,805
-20,648
-20,619
-20,684
-20,818
-21,007
-21,235
-21,493
-21,773
-22,07
-22,38
-22,692
-22,996
-23,284
-23,534
-23,717
-23,829
-23,889
-23,962
-24,165
-24,592
-25,312
-26,37
-27,782
-29,55
-31,659
-34,073
-36,734
-39,578
-42,555
-45,634
-48,808
-52,017
-55,128
-57,917
-60,088
-61,357
-61,481
-60,279
-57,606
-53,515
-48,315
-42,345
-36,021
-29,734
-23,534
-17,367
-11,217
-4,137
5,469
18,612
36,542
58,796
82,105
105,922
130,865
157,929
191,442
227,545
255,126
264,18
242,834
191,22
122,804
50,38
-12,053
-58,084
-91,532
-114,525
-129,051
-135,817
-132,79
-121,172
-104,239
-85,38
-68,223
-54,844
-45,979
-42,005
-42,534
-46,538
-52,665
-59,25
-65,017
-69,334
-71,858
-72,526
-71,503
-69,041
-65,596
-61,785
-57,968
-54,271
-50,719
-47,191
-43,581
-39,816
-35,767
-31,288
-26,317
-20,852
-14,944
-8,696
-2,184
4,551
11,496
18,659
26,048
33,688
41,612
49,876
58,542
67,63
77,137
87,041
97,306
107,914
118,861
130,136
141,719
153,565
165,587
177,684
189,729
201,548
212,938
223,644
233,388
241,956
249,171
254,885
258,978
261,331
261,815
260,34
256,845
251,282
243,665
234,028
222,45
209,088
194,15
177,917
160,702
142,773
124,371
105,744
87,125
68,757
50,913
33,811
17,649
2,637
-11,073
-23,351
-34,103
-43,313
-51,014
-57,293
-62,268
-66,04
-68,706
-70,387
-71,216
-71,344
-70,96
-70,212
-69,237
-68,195
-67,206
-66,374
-65,791
-65,494
-65,493
-65,784
-66,343
-67,145
-68,176
-69,402
-70,78
-72,256
-73,745
-75,189
-76,543
-77,756
-78,804
-79,676
-80,359
-80,858
-81,202
-81,417
-81,53
-81,572
-81,546
-81,449
-81,287
-81,075
-80,848
-80,636
-80,449
-80,286
-80,134
-79,986
-79,85
-79,742
-79,653
-79,569
-79,495
-79,46
-79,543
-79,856
-80,481
-81,478
-82,878
-84,7
-86,986
-89,792
-93,171
-97,139
-101,685
-106,764
-112,369
-118,549
-125,232
-132,192
-139,033
-145,195
-150,153
-153,535
-155,081
-154,528
-151,864
-147,429
-141,829
-136,123
-131,547
-128,973
-128,677
-130,58
-133,974
-137,442
-139,569
-138,12
-129,911
-112,406
-84,107
-45,879
-1,449
45,467
92,808
142,351
197,611
256,989
313,177
351,667
354,465
313,752
232,784
123,44
8,428
-92,192
-167,8
-210,943
-226,199
-226,262
-218,766
-211,8
-208,276
-202,838
-193,99
-182,388
-169,441
-159,514
-154,713
-154,379
-157,349
-162,126
-167,283
-171,705
-174,754
-175,913
-174,943
-172,19
-168,069
-162,948
-157,341
-151,724
-146,33
-141,32
-136,728
-132,419
-128,296
-124,24
-120,073
-115,638
-110,82
-105,572
-99,914
-93,871
-87,435
-80,567
-73,233
-65,403
-57,064
-48,182
-38,697
-28,581
-17,828
-6,478
5,39
17,707
30,391
43,347
56,492
69,718
82,89
95,868
108,497
120,582
131,948
142,405
151,737
159,791
166,439
171,576
175,151
177,121
177,467
176,217
173,416
169,119
163,43
156,464
148,36
139,326
129,55
119,215
108,53
97,658
86,741
75,923
65,309
54,983
45,022
35,472
26,362
17,728
9,576
1,891
-5,354
-12,224
-18,77
-25,015
-30,996
-36,736
-42,251
-47,567
-52,701
-57,644
-62,399
-66,973
-71,357
-75,548
-79,523
-83,23
-86,613
-89,618
-92,212
-94,396
-96,172
-97,53
-98,46
-98,955
-98,997
-98,591
-97,728
-96,372
-94,507
-92,153
-89,353
-86,204
-82,825
-79,303
-75,714
-72,113
-68,539
-65,059
-61,736
-58,617
-55,758
-53,206
-51,014
-49,28
-48,076
-47,419
-47,298
-47,641
-48,347
-49,352
-50,596
-52,024
-53,608
-55,306
-57,09
-58,956
-60,902
-62,939
-65,073
-67,276
-69,517
-71,791
-74,111
-76,527
-79,115
-81,938
-85,042
-88,441
-92,147
-96,18
-100,467
-104,849
-109,058
-112,685
-115,336
-116,723
-116,656
-114,971
-111,745
-107,331
-102,295
-97,57
-94,182
-92,861
-93,929
-97,414
-102,708
-108,58
-113,733
-115,944
-112,36
-100,633
-78,768
-47,347
-10,145
29,544
68,788
108,632
155,019
208,061
263,895
311,017
327,292
299,893
223,617
104,561
-31,426
-159,176
-256,088
-307,9
-317,816
-295,877
-256,673
-210,961
-166,146
-129,024
-101,436
-89,103
-92,001
-101,874
-113,966
-120,412
-118,16
-112,92
-107,11
-102,871
-101,125
-98,616
-94,121
-88,241
-81,314
-74,383
-68,148
-62,383
-56,956
-51,92
-47,122
-42,383
-37,605
-32,626
-27,31
-21,693
-15,802
-9,627
-3,217
3,414
10,269
17,298
24,475
31,804
39,278
46,91
54,729
62,728
70,919
79,343
88,008
96,939
106,162
115,674
125,491
135,624
146,049
156,741
167,651
178,663
189,65
200,456
210,877
220,738
229,841
237,938
244,828
250,327
254,259
256,495
256,905
255,353
251,767
246,119
238,418
228,763
217,292
204,192
189,726
174,147
157,735
140,824
123,722
106,732
90,146
74,204
59,144
45,218
32,624
21,509
11,987
4,093
-2,187
-6,91
-10,199
-12,185
-13,023
-12,911
-12,049
-10,648
-8,902
-6,969
-4,995
-3,143
-1,551
-0,325
0,45
0,743
0,547
-0,124
-1,231
-2,723
-4,538
-6,593
-8,794
-11,042
-13,259
-15,394
-17,404
-19,24
-20,857
-22,228
-23,34
-24,215
-24,882
-25,364
-25,686
-25,874
-25,965
-25,999
-26,012
-26,03
-26,049
-26,056
-26,046
-26,026
-26,011
-26,006
-26,012
-26,014
-26,002
-25,993
-26
-26,028
-26,078
-26,147
-26,253
-26,456
-26,846
-27,516
-28,532
-29,926
-31,714
-33,919
-36,535
-39,552
-42,917
-46,516
-50,263
-54,08
-57,89
-61,665
-65,348
-68,818
-71,911
-74,417
-76,102
-76,84
-76,496
-74,809
-71,562
-66,612
-60,086
-52,568
-44,677
-36,784
-29,14
-22,08
-16,032
-11,102
-6,448
-0,273
9,333
22,233
36,228
49,918
63,732
82,203
111,468
151,548
195,535
229,363
236,793
209,025
146,262
58,504
-38,679
-128,673
-196,421
-234,03
-238,177
-214,589
-175,853
-131,835
-95,14
-70,817
-57,019
-54,728
-57,488
-61,525
-66,703
-68,823
-69,814
-71,256
-72,197
-74,191
-75,902
-75,734
-74,118
-71,054
-67,203
-63,555
-60,191
-56,965
-53,811
-50,518
-46,932
-42,996
-38,627
-33,741
-28,342
-22,476
-16,184
-9,536
-2,595
4,617
12,118
19,938
28,087
36,546
45,275
54,238
63,424
72,859
82,557
92,504
102,664
112,982
123,412
133,91
144,41
154,812
164,966
174,719
183,955
192,59
200,549
207,736
214,033
219,294
223,425
226,398
228,208
228,864
228,364
226,716
223,964
220,211
215,594
210,231
204,204
197,56
190,361
182,705
174,699
166,454
158,019
149,38
140,539
131,528
122,399
113,209
103,989
94,728
85,425
76,135
66,94
57,931
49,176
40,69
32,502
24,667
17,292
10,523
4,454
-0,883
-5,466
-9,271
-12,271
-14,431
-15,779
-16,425
-16,486
-16,059
-15,21
-13,95
-12,313
-10,378
-8,243
-6,014
-3,743
-1,437
0,867
3,095
5,15
6,958
8,511
9,878
11,113
12,238
13,246
14,1
14,776
15,28
15,598
15,687
15,475
14,882
13,878
12,502
10,829
8,926
6,821
4,524
2,056
-0,545
-3,245
-6,013
-8,83
-11,672
-14,479
-17,166
-19,652
-21,873
-23,789
-25,402
-26,735
-27,814
-28,707
-29,527
-30,395
-31,422
-32,676
-34,163
-35,92
-38,037
-40,527
-43,312
-46,164
-48,741
-50,804
-52,266
-53,054
-53,058
-52,326
-51,02
-49,598
-48,834
-49,295
-51,322
-55,028
-60,232
-66,393
-72,696
-77,806
-80,042
-78,142
-70,521
-55,59
-32,509
-0,845
37,415
77,63
116,189
151,631
186,692
226,712
272,62
318,472
348,899
347,214
303,2
214,953
98,285
-25,293
-134,085
-204,971
-232,615
-221,906
-184,51
-142,617
-108,616
-86,473
-75,528
-67,365
-58,008
-48,275
-39,647
-35,439
-36,325
-40,382
-45,768
-50,447
-53,34
-54,35
-53,415
-50,742
-46,74
-41,835
-36,542
-31,306
-26,296
-21,513
-16,877
-12,215
-7,354
-2,118
3,652
10,03
17
24,487
32,402
40,671
49,242
58,085
67,177
76,494
86,02
95,727
105,559
115,451
125,321
135,081
144,666
154,053
163,239
172,237
181,066
189,726
198,207
206,479
214,474
222,109
229,285
235,93
242,009
247,498
252,378
256,628
260,212
263,078
265,163
266,388
266,661
265,9
264,038
261,044
256,927
251,727
245,514
238,333
230,19
221,099
211,078
200,162
188,41
175,9
162,729
149,028
134,957
120,688
106,405
92,277
78,454
65,06
52,183
39,935
28,456
17,872
8,294
-0,188
-7,518
-13,663
-18,608
-22,378
-25,031
-26,663
-27,396
-27,368
-26,727
-25,598
-24,081
-22,291
-20,356
-18,396
-16,52
-14,815
-13,34
-12,151
-11,298
-10,811
-10,702
-10,952
-11,517
-12,342
-13,356
-14,508
-15,771
-17,11
-18,484
-19,86
-21,214
-22,53
-23,812
-25,051
-26,22
-27,304
-28,288
-29,169
-29,96
-30,675
-31,334
-31,963
-32,564
-33,15
-33,754
-34,397
-35,108
-35,936
-36,904
-38,048
-39,439
-41,124
-43,168
-45,662
-48,651
-52,181
-56,261
-60,831
-65,868
-71,36
-77,24
-83,46
-89,898
-96,32
-102,639
-108,843
-114,77
-120,223
-124,74
-127,593
-128,414
-127,137
-123,605
-117,771
-109,735
-99,785
-89,124
-79,539
-72,083
-67,083
-64,541
-64,074
-64,845
-65,331
-62,614
-52,73
-34,779
-11,267
15,826
44,393
77,953
125,21
187,335
259,195
323,567
353,24
330,39
246,947
116,013
-30,785
-162,855
-250,672
-286,097
-280,793
-249,024
-213,438
-183,596
-156,572
-134,98
-114,434
-96,491
-89,628
-90,275
-96,809
-106,497
-111,777
-114,585
-116,743
-117,878
-120,206
-122,158
-122,014
-120,488
-117,764
-114,488
-111,561
-108,969
-106,511
-104,184
-101,825
-99,234
-96,284
-92,832
-88,761
-84,086
-78,874
-73,149
-67,017
-60,585
-53,788
-46,595
-38,941
-30,71
-22,033
-13,085
-3,802
5,854
15,671
25,53
35,164
44,221
53,02
61,939
70,936
80,05
89,482
99,244
109,647
121,074
132,952
144,66
155,985
166,54
176,005
184,241
190,719
194,905
197,051
197,389
195,979
193,045
188,588
182,568
175,286
167,02
157,753
147,528
136,371
124,282
111,496
98,225
84,585
70,718
56,771
42,893
29,277
16,076
3,374
-8,762
-20,311
-31,246
-41,515
-51,084
-59,872
-67,829
-74,961
-81,261
-86,737
-91,424
-95,355
-98,594
-101,271
-103,479
-105,282
-106,735
-107,851
-108,66
-109,219
-109,575
-109,806
-109,976
-110,121
-110,281
-110,501
-110,794
-111,166
-111,598
-112,019
-112,387
-112,689
-112,912
-113,071
-113,176
-113,223
-113,222
-113,186
-113,124
-113,049
-112,974
-112,903
-112,851
-112,835
-112,868
-112,97
-113,153
-113,421
-113,777
-114,22
-114,738
-115,314
-115,935
-116,584
-117,255
-117,947
-118,651
-119,366
-120,111
-120,934
-121,907
-123,123
-124,661
-126,569
-128,894
-131,67
-134,942
-138,769
-143,182
-148,196
-153,801
-159,979
-166,751
-174,087
-181,814
-189,6
-196,966
-203,303
-208,088
-211,03
-211,831
-210,421
-207,105
-202,356
-197,142
-192,938
-190,964
-191,679
-195,125
-200,698
-207,098
-212,847
-215,403
-210,939
-195,66
-168,889
-132,996
-90,508
-45,074
5,797
70,38
148,269
235,197
317,235
365,501
363,634
304,321
189,357
46,707
-97,509
-221,246
-301,856
-339,983
-342,745
-317,462
-279,467
-235,784
-192,194
-159,596
-143,631
-147,151
-167,162
-191,298
-208,859
-214,632
-209,3
-200,099
-192,492
-187,878
-185,38
-182,011
-176,443
-169,346
-161,481
-153,727
-146,501
-139,61
-132,971
-126,61
-120,402
-114,272
-108,187
-102,058
-95,817
-89,406
-82,727
-75,733
-68,438
-60,844
-52,946
-44,732
-36,178
-27,294
-18,109
-8,613
1,227
11,461
22,152
33,305
44,881
56,833
69,097
81,626
94,391
107,34
120,405
133,517
146,595
159,553
172,298
184,676
196,481
207,498
217,496
226,297
233,788
239,851
244,38
247,278
248,453
247,85
245,462
241,273
235,265
227,46
217,914
206,767
194,241
180,565
165,988
150,729
134,97
118,927
102,829
86,903
71,367
56,406
42,161
28,785
16,472
5,383
-4,362
-12,699
-19,674
-25,366
-29,846
-33,179
-35,429
-36,659
-37,022
-36,775
-36,025
-34,739
-32,88
-30,37
-27,373
-24,34
-21,492
-18,772
-16,369
-14,628
-13,952
-14,982
-17,719
-21,377
-25,502
-29,942
-34,279
-38,112
-40,867
-41,531
-39,984
-37,104
-33,427
-29,283
-25,089
-21,019
-17,513
-15,44
-14,937
-15,389
-16,404
-17,659
-18,933
-20,308
-21,659
-22,591
-23,055
-23,318
-23,574
-24,027
-24,752
-25,596
-26,496
-27,493
-28,567
-29,692
-30,857
-32,03
-33,236
-34,555
-36,044
-37,761
-39,755
-42,018
-44,531
-47,23
-50,055
-53,068
-56,293
-59,654
-62,991
-65,908
-67,993
-69,127
-69,252
-68,266
-66,346
-63,782
-61,026
-59,247
-59,662
-62,714
-68,489
-76,603
-85,86
-94,967
-102,574
-106,313
-103,397
-92,315
-72,474
-43,92
-9,856
26,467
64,104
99,185
131,033
160,22
180,414
189,918
183,749
154,297
105,897
39,905
-34,832
-100,638
-150,082
-173,336
-169,758
-152,234
-128,559
-108,19
-95,652
-85,839
-76,683
-67,255
-57,741
-51,652
-50,248
-52,56
-57,365
-62,752
-67,528
-71,325
-73,793
-74,751
-74,228
-72,453
-69,806
-66,718
-63,422
-59,954
-56,32
-52,485
-48,375
-43,933
-39,073
-33,697
-27,801
-21,445
-14,694
-7,637
-0,347
7,133
14,751
22,451
30,193
37,949
45,714
53,507
61,341
69,228
77,19
85,258
93,482
101,919
110,608
119,57
128,815
138,333
148,096
158,078
168,25
178,543
188,86
199,059
208,963
218,406
227,234
235,275
242,349
248,276
252,877
256,019
257,616
257,599
255,936
252,587
247,503
240,705
232,269
222,339
211,135
198,859
185,693
171,855
157,585
143,139
128,802
114,797
101,283
88,416
76,329
65,176
55,138
46,327
38,785
32,499
27,384
23,371
20,415
18,42
17,258
16,776
16,78
17,139
17,779
18,615
19,566
20,526
21,355
21,966
22,322
22,407
22,239
21,828
21,164
20,279
19,231
18,09
16,945
15,841
14,78
13,776
12,838
11,988
11,265
10,681
10,226
9,892
9,662
9,517
9,438
9,383
9,302
9,147
8,869
8,446
7,874
7,16
6,325
5,391
4,369
3,273
2,106
0,866
-0,449
-1,835
-3,275
-4,747
-6,234
-7,716
-9,176
-10,619
-12,062
-13,549
-15,147
-16,901
-18,858
-21,06
-23,543
-26,346
-29,463
-32,83
-36,418
-40,25
-44,286
-48,435
-52,442
-55,832
-58,301
-59,777
-60,215
-59,594
-57,941
-55,375
-52,502
-50,527
-50,315
-52,059
-55,482
-59,938
-64,754
-69,169
-71,672
-69,805
-61,428
-45,506
-22,051
8,002
43,299
82,116
121,73
158,115
187,177
205,861
212,116
205,067
185,012
153,052
111,431
64,003
15,06
-31,595
-72,347
-104,582
-127,289
-140,117
-143,526
-139,31
-129,412
-115,814
-101,165
-87,209
-74,186
-62,289
-51,493
-41,51
-32,831
-25,677
-19,266
-13,675
-10,06
-9,376
-12,547
-19,61
-28,956
-39,094
-49,437
-58,989
-66,312
-69,976
-68,425
-61,311
-50,066
-36,375
-21,334
-5,843
9,336
23,345
35,033
43,925
50,684
56,371
61,777
67,309
73,06
79,108
85,782
93,321
101,583
110,208
118,919
127,602
136,298
145,105
153,985
162,823
171,534
180,055
188,311
196,225
203,686
210,566
216,781
222,244
226,859
230,526
233,103
234,48
234,601
233,425
230,947
227,204
222,256
216,217
209,252
201,497
193,072
184,079
174,59
164,702
154,53
144,193
133,835
123,573
113,498
103,695
94,237
85,164
76,497
68,215
60,248
52,557
45,127
37,953
31,057
24,448
18,121
12,074
6,306
0,815
-4,395
-9,329
-13,997
-18,392
-22,504
-26,304
-29,743
-32,792
-35,438
-37,678
-39,517
-40,964
-42,025
-42,719
-43,071
-43,108
-42,857
-42,344
-41,589
-40,624
-39,481
-38,195
-36,803
-35,338
-33,821
-32,279
-30,734
-29,213
-27,748
-26,365
-25,082
-23,921
-22,896
-22,013
-21,277
-20,672
-20,172
-19,757
-19,402
-19,099
-18,855
-18,67
-18,552
-18,505
-18,52
-18,591
-18,718
-18,889
-19,095
-19,34
-19,64
-20,046
-20,638
-21,481
-22,621
-24,08
-25,859
-27,97
-30,421
-33,218
-36,31
-39,643
-43,232
-47,052
-51,018
-54,963
-58,466
-61,033
-62,454
-62,576
-61,181
-58,412
-54,462
-49,71
-45,405
-42,779
-42,222
-43,89
-47,67
-52,687
-58,081
-62,483
-62,835
-56,016
-41,756
-21,923
1,712
26,577
55,509
96,767
151,417
216,561
280,992
320,607
319,981
272,448
181,484
70,733
-35,323
-115,639
-155,674
-159,213
-138,348
-110,155
-89,982
-82,18
-84,691
-90,109
-92,115
-90,45
-87,219
-85,498
-86,731
-89,547
-91,949
-92,881
-92,199
-90,019
-86,547
-81,812
-75,873
-69,248
-62,64
-56,44
-50,841
-45,954
-41,748
-38,287
-35,652
-33,719
-32,288
-31,137
-30,009
-28,782
-27,422
-25,859
-24,027
-21,845
-19,178
-15,887
-11,825
-6,775
-0,543
7,018
16,016
26,443
38,218
51,209
65,218
80,077
95,64
111,727
128,169
144,791
161,373
177,672
193,408
208,206
221,704
233,605
243,662
251,731
257,733
261,626
263,441
263,236
261,085
257,1
251,395
244,081
235,31
225,271
214,197
202,398
190,182
177,8
165,474
153,368
141,611
130,315
119,547
109,336
99,695
90,621
82,112
74,169
66,773
59,88
53,426
47,311
41,444
35,756
30,196
24,731
19,343
14,009
8,719
3,47
-1,732
-6,875
-11,936
-16,888
-21,699
-26,329
-30,735
-34,866
-38,663
-42,074
-45,062
-47,607
-49,689
-51,282
-52,339
-52,794
-52,6
-51,745
-50,25
-48,16
-45,523
-42,399
-38,862
-35,012
-30,984
-26,904
-22,877
-18,982
-15,298
-11,925
-8,996
-6,667
-5,053
-4,218
-4,177
-4,92
-6,439
-8,699
-11,633
-15,125
-19,026
-23,209
-27,579
-32,072
-36,623
-41,148
-45,537
-49,69
-53,55
-57,103
-60,364
-63,348
-66,045
-68,493
-70,769
-72,986
-75,279
-77,742
-80,406
-83,299
-86,488
-89,955
-93,599
-97,216
-100,444
-102,918
-104,37
-104,6
-103,469
-101,061
-97,661
-93,74
-90,064
-87,496
-86,807
-88,395
-92,213
-97,618
-103,424
-108,323
-110,909
-108,953
-99,72
-81,621
-53,755
-17,901
20,957
61,045
102,043
144,404
192,08
240,929
280,367
300,208
285,919
232,428
147,509
42,631
-61,424
-144,432
-197,165
-216,554
-209,706
-191,555
-172,692
-159,11
-152,016
-146,466
-139,356
-131,065
-123,153
-118,805
-119,381
-123,699
-129,935
-136,031
-140,77
-143,839
-145,08
-144,461
-142,146
-138,426
-133,826
-128,981
-124,215
-119,611
-115,168
-110,792
-106,405
-101,954
-97,307
-92,28
-86,781
-80,793
-74,347
-67,514
-60,331
-52,811
-44,972
-36,843
-28,447
-19,796
-10,899
-1,76
7,606
17,168
26,908
36,821
46,904
57,155
67,55
78,029
88,534
99,005
109,364
119,532
129,391
138,777
147,56
155,633
162,893
169,251
174,587
178,74
181,585
183,032
183,03
181,578
178,681
174,345
168,627
161,622
153,469
144,361
134,452
123,856
112,698
101,093
89,186
77,166
65,178
53,334
41,734
30,445
19,538
9,087
-0,884
-10,39
-19,47
-28,197
-36,61
-44,716
-52,526
-60,045
-67,291
-74,297
-81,076
-87,615
-93,914
-99,967
-105,779
-111,361
-116,704
-121,776
-126,544
-130,968
-135,023
-138,703
-142,004
-144,923
-147,468
-149,646
-151,481
-153,008
-154,258
-155,258
-156,033
-156,603
-156,995
-157,237
-157,354
-157,369
-157,304
-157,181
-157,035
-156,896
-156,786
-156,724
-156,719
-156,77
-156,877
-157,02
-157,17
-157,298
-157,373
-157,38
-157,325
-157,213
-157,051
-156,84
-156,561
-156,202
-155,766
-155,248
-154,642
-153,953
-153,199
-152,439
-151,774
-151,301
-151,084
-151,156
-151,524
-152,194
-153,184
-154,513
-156,15
-158,061
-160,263
-162,727
-165,38
-168,061
-170,34
-171,711
-171,918
-170,725
-167,856
-163,403
-157,538
-150,722
-144,296
-139,544
-136,93
-136,645
-138,604
-142,083
-146,22
-149,268
-147,795
-138,281
-120,193
-95,828
-67,45
-37,473
-1,898
48,537
115,967
196,983
274,809
320,647
314,558
246,348
126,533
-13,608
-142,519
-231,197
-269,208
-266,365
-239,154
-210,015
-190,765
-181,55
-179,03
-174,637
-165,458
-154,068
-142,844
-135,577
-133,492
-134,927
-138,451
-142,505
-145,628
-147,347
-147,463
-145,752
-142,429
-137,846
-132,318
-126,297
-120,243
-114,352
-108,687
-103,274
-98,022
-92,856
-87,717
-82,46
-76,929
-71,048
-64,802
-58,22
-51,359
-44,25
-36,883
-29,24
-21,313
-13,097
-4,575
4,279
13,514
23,186
33,314
43,88
54,844
66,157
77,769
89,623
101,651
113,775
125,887
137,857
149,543
160,787
171,428
181,314
190,271
198,117
204,697
209,887
213,601
215,793
216,441
215,551
213,153
209,3
204,083
197,626
190,082
181,627
172,431
162,645
152,439
141,999
131,492
121,075
110,87
100,962
91,423
82,309
73,663
65,514
57,859
50,668
43,894
37,476
31,376
25,581
20,064
14,786
9,708
4,79
0,006
-4,637
-9,14
-13,503
-17,735
-21,848
-25,829
-29,65
-33,25
-36,547
-39,505
-42,125
-44,412
-46,378
-47,985
-49,102
-49,74
-50,05
-50,154
-50,198
-50,142
-49,681
-48,741
-47,525
-45,975
-43,843
-40,802
-36,28
-30,315
-23,695
-16,858
-9,938
-3,328
2,555
7,04
9,05
8,455
6,074
2,389
-2,267
-7,53
-13,171
-18,521
-22,626
-25,433
-27,324
-28,243
-28,437
-28,07
-27,028
-26,403
-25,458
-20,911
-13,51
-5,417
-2,243
-15,818
-44,757
-77,715
-101,65
-95,892
-60,533
-15,612
21,881
30,751
8,784
-23,942
-53,547
-67,265
-61,975
-49,503
-36,855
-27,794
-24,764
-25,187
-28,185
-34,688
-44,53
-57,168
-71,187
-84,276
-93,191
-94,581
-86,057
-65,821
-34,965
3,761
49,216
98,249
149,502
201,307
244,012
270,794
274,242
247,53
198,408
134,642
64,247
-1,01
-59,63
-110,567
-150,243
-178,991
-194,979
-196,841
-187,137
-169,021
-145,891
-121,827
-99,975
-81,938
-68,73
-60,669
-56,986
-56,602
-58,38
-60,67
-62,16
-62,281
-60,659
-57,356
-52,832
-47,442
-41,614
-35,929
-30,68
-25,955
-21,786
-17,99
-14,357
-10,744
-6,953
-2,832
1,655
6,525
11,765
17,326
23,2
29,366
35,773
42,407
49,26
56,324
63,61
71,125
78,869
86,859
95,123
103,677
112,52
121,643
131,025
140,651
150,512
160,588
170,843
181,234
191,697
202,151
212,503
222,602
232,239
241,206
249,273
256,259
262,046
266,513
269,544
271,052
270,964
269,237
265,876
260,864
254,166
245,803
235,825
224,382
211,726
198,104
183,767
168,959
153,879
138,757
123,849
109,35
95,413
82,173
69,726
58,214
47,831
38,706
30,918
24,473
19,277
15,247
12,31
10,357
9,27
8,896
9,042
9,577
10,432
11,532
12,818
14,191
15,495
16,624
17,516
18,13
18,468
18,527
18,285
17,767
17,028
16,143
15,216
14,3
13,401
12,527
11,676
10,861
10,121
9,474
8,914
8,447
8,08
7,825
7,702
7,699
7,77
7,853
7,872
7,764
7,487
7,011
6,329
5,44
4,343
3,039
1,536
-0,186
-2,162
-4,426
-7,024
-9,976
-13,267
-16,856
-20,674
-24,638
-28,655
-32,661
-36,626
-40,534
-44,377
-48,148
-51,823
-55,342
-58,638
-61,629
-64,202
-66,31
-67,942
-69,097
-69,794
-70,034
-69,785
-69,05
-67,844
-66,028
-63,428
-59,973
-55,729
-51,072
-46,569
-42,578
-39,148
-36,462
-34,761
-33,661
-32,215
-29,237
-22,858
-13,051
-2,655
8,464
21,767
39,922
69,544
107,384
141,553
160,62
150,532
110,573
54,78
-4,406
-53,481
-86,843
-110,016
-125,392
-134,561
-138,136
-133,478
-121,181
-104,124
-85,035
-66,943
-52,186
-41,9
-36,592
-36,093
-39,358
-44,931
-51,353
-57,576
-62,839
-66,654
-68,846
-69,372
-68,443
-66,485
-63,925
-61,021
-57,874
-54,463
-50,696
-46,523
-41,873
-36,755
-31,216
-25,185
-18,68
-11,701
-4,185
3,675
11,638
19,722
27,906
35,988
43,966
51,536
58,199
64,173
69,69
74,829
80,066
85,8
92,031
99,37
108,625
119,711
132,755
147,601
163,166
178,793
194,241
208,597
220,949
230,934
237,73
241,21
242,353
241,567
239,019
235,238
230,52
225,145
219,869
214,766
209,185
202,894
195,77
187,727
178,999
169,627
159,393
148,45
137,227
126,016
115,11
104,659
94,611
85,014
75,985
67,552
59,694
52,357
45,441
38,872
32,638
26,727
21,114
15,764
10,633
5,694
0,941
-3,611
-7,95
-12,072
-15,972
-19,641
-23,067
-26,225
-29,089
-31,634
-33,847
-35,723
-37,268
-38,487
-39,387
-39,982
-40,294
-40,355
-40,198
-39,853
-39,353
-38,729
-38,016
-37,244
-36,444
-35,645
-34,873
-34,149
-33,488
-32,903
-32,407
-32,022
-31,773
-31,687
-31,786
-32,077
-32,558
-33,221
-34,052
-35,035
-36,15
-37,358
-38,63
-39,949
-41,315
-42,741
-44,235
-45,771
-47,302
-48,775
-50,14
-51,382
-52,512
-53,534
-54,48
-55,378
-56,244
-57,157
-58,201
-59,416
-60,832
-62,4
-63,998
-65,635
-67,445
-69,48
-71,75
-74,019
-75,764
-76,718
-76,895
-76,234
-74,595
-71,841
-67,887
-63,449
-60,11
-58,929
-60,16
-63,686
-69,084
-75,799
-83,09
-88,801
-88,955
-81,838
-68,665
-50,443
-29,146
-1,899
39,724
96,479
164,149
230,673
272,653
277,433
239,368
159,068
56,821
-49,139
-140,98
-197,384
-217,367
-208,063
-178,728
-147,626
-120,661
-92,987
-65,275
-37,409
-13,813
-7,159
-18,876
-40,874
-65,277
-80,63
-83,612
-80,836
-76,427
-73,825
-74,036
-73,847
-72,099
-69,385
-66,119
-63,039
-60,287
-57,348
-53,965
-50,158
-45,882
-41,041
-35,572
-29,485
-22,865
-15,85
-8,532
-0,906
7,033
15,291
23,891
32,863
42,259
52,12
62,453
73,253
84,495
96,16
108,236
120,688
133,458
146,471
159,628
172,807
185,88
198,666
210,948
222,506
233,106
242,561
250,739
257,522
262,82
266,56
268,679
269,158
268,025
265,319
261,102
255,465
248,519
240,43
231,425
221,716
211,518
201,01
190,325
179,591
168,927
158,429
148,179
138,236
128,63
119,391
110,554
102,124
94,095
86,418
79,008
71,801
64,751
57,833
51,044
44,379
37,831
31,406
25,114
18,963
12,962
7,109
1,395
-4,164
-9,539
-14,673
-19,494
-23,943
-27,986
-31,61
-34,81
-37,579
-39,905
-41,783
-43,202
-44,134
-44,547
-44,391
-43,637
-42,289
-40,389
-38,015
-35,266
-32,254
-29,064
-25,76
-22,407
-19,061
-15,79
-12,659
-9,743
-7,133
-4,939
-3,285
-2,262
-1,913
-2,215
-3,102
-4,479
-6,228
-8,271
-10,541
-12,98
-15,554
-18,22
-20,947
-23,707
-26,447
-29,084
-31,525
-33,698
-35,6
-37,306
-38,914
-40,538
-42,269
-44,146
-46,23
-48,565
-51,17
-54,063
-57,17
-60,413
-63,818
-67,38
-71,034
-74,638
-77,737
-79,795
-80,586
-79,915
-77,638
-74,011
-69,241
-63,769
-58,904
-55,866
-55,196
-57,243
-61,641
-67,175
-73,11
-78
-78,681
-72,465
-57,441
-33,81
-5,067
25,552
57,355
94,03
140,285
195,786
253,595
296,177
305,074
270,313
189,966
79,58
-38,323
-142,506
-211,46
-239,854
-232,848
-202,274
-168,721
-143,15
-128,875
-124,258
-120,581
-114,583
-107,361
-100,462
-97,434
-98,965
-103,214
-108,843
-114,265
-118,414
-121,175
-122,369
-121,963
-120,313
-117,79
-114,789
-111,706
-108,713
-105,836
-103,071
-100,333
-97,488
-94,385
-90,857
-86,788
-82,16
-77,014
-71,416
-65,431
-59,09
-52,405
-45,368
-37,966
-30,166
-21,913
-13,144
-3,794
6,162
16,698
27,771
39,333
51,346
63,782
76,593
89,704
103,024
116,447
129,84
143,058
155,9
168,121
179,479
189,727
198,664
206,159
212,107
216,437
219,12
220,137
219,502
217,266
213,482
208,206
201,536
193,577
184,49
174,507
163,847
152,728
141,345
129,838
118,314
106,856
95,49
84,21
73,024
61,928
50,935
40,103
29,465
19,06
8,926
-0,96
-10,615
-20,041
-29,253
-38,237
-46,94
-55,303
-63,215
-70,528
-77,139
-82,966
-87,95
-92,099
-95,432
-97,987
-99,853
-101,089
-101,74
-101,864
-101,49
-100,651
-99,414
-97,849
-96,052
-94,157
-92,264
-90,456
-88,816
-87,376
-86,151
-85,14
-84,287
-83,55
-82,907
-82,343
-81,864
-81,491
-81,236
-81,114
-81,137
-81,293
-81,574
-81,965
-82,443
-82,993
-83,602
-84,265
-84,997
-85,813
-86,717
-87,711
-88,796
-89,958
-91,171
-92,404
-93,629
-94,834
-96,037
-97,271
-98,568
-99,975
-101,55
-103,335
-105,399
-107,811
-110,623
-113,877
-117,586
-121,744
-126,392
-131,598
-137,322
-143,421
-149,624
-155,545
-160,857
-165,292
-168,59
-170,464
-170,847
-169,937
-168,136
-166,176
-164,849
-164,724
-166,076
-168,98
-172,911
-176,864
-179,911
-180,341
-175,705
-163,762
-142,417
-112,06
-76,626
-39,719
-3,601
35,555
87,231
155,212
236,163
311,52
351,207
334,331
251,78
118,788
-29,615
-160,153
-245,76
-281,267
-277,885
-252,359
-223,093
-196,049
-175,561
-162,2
-153,086
-151,958
-154,492
-156,938
-159,183
-156,772
-152,094
-147,786
-143,29
-140,267
-138,379
-135,626
-129,644
-120,667
-111,074
-105,863
-113,944
-134,39
-157,829
-174,403
-170,738
-146,422
-114,196
-83,927
-65,836
-61,476
-62,1
-62,703
-60,039
-53,303
-45,682
-38,294
-30,846
-23,386
-15,432
-6,878
1,996
11,237
20,806
30,542
40,348
50,18
60,136
70,342
80,841
91,591
102,539
113,645
124,888
136,266
147,707
159,087
170,271
181,095
191,367
200,902
209,496
216,915
222,987
227,583
230,596
231,969
231,651
229,608
225,832
220,327
213,108
204,232
193,801
181,967
168,973
155,08
140,56
125,729
110,835
96,081
81,66
67,714
54,366
41,729
29,9
18,967
9,044
0,239
-7,395
-13,865
-19,262
-23,715
-27,366
-30,389
-32,927
-35,102
-37,011
-38,708
-40,206
-41,498
-42,593
-43,512
-44,322
-45,119
-45,957
-46,846
-47,753
-48,614
-49,355
-49,887
-50,114
-49,926
-49,273
-48,158
-46,644
-44,852
-42,864
-40,738
-38,503
-36,151
-33,702
-31,204
-28,705
-26,26
-23,95
-21,86
-20,114
-18,873
-18,229
-18,209
-18,785
-19,846
-21,316
-23,152
-25,309
-27,76
-30,474
-33,396
-36,495
-39,752
-43,108
-46,497
-49,812
-52,893
-55,64
-58
-59,968
-61,625
-63,031
-64,214
-65,203
-65,993
-66,6
-67,075
-67,454
-67,767
-68,049
-68,28
-68,53
-68,984
-69,708
-70,679
-71,646
-72,055
-71,592
-70,249
-68
-64,896
-61,052
-56,628
-52,532
-50,291
-50,774
-54,19
-60,162
-67,678
-75,998
-83,989
-88,851
-87,151
-76,228
-56,265
-30,705
-2,636
27,067
62,133
107,786
161,653
214,661
250,68
251,259
210,962
134,22
32,332
-75,102
-175,632
-260,563
-317,566
-342,221
-330,047
-280,576
-209,806
-135,481
-77,391
-51,638
-56,456
-81,724
-111,643
-131,309
-136,654
-130,583
-120,479
-112,625
-108,523
-106,803
-104,498
-100,269
-94,682
-88,641
-83,198
-78,582
-74,38
-70,382
-66,406
-62,252
-57,804
-52,883
-47,364
-41,298
-34,771
-27,86
-20,641
-13,142
-5,371
2,64
10,891
19,38
28,081
36,969
45,981
55,034
64,06
72,989
81,776
90,42
98,921
107,288
115,561
123,75
131,834
139,777
147,486
154,843
161,767
168,189
174,065
179,374
184,07
188,108
191,457
194,061
195,868
196,814
196,796
195,738
193,628
190,484
186,395
181,491
175,867
169,604
162,785
155,471
147,739
139,666
131,307
122,724
113,997
105,217
96,518
88,017
79,782
71,853
64,226
56,864
49,758
42,906
36,296
29,934
23,827
17,983
12,434
7,211
2,325
-2,226
-6,464
-10,417
-14,086
-17,467
-20,541
-23,279
-25,665
-27,689
-29,337
-30,606
-31,502
-32,039
-32,244
-32,154
-31,794
-31,189
-30,362
-29,332
-28,127
-26,778
-25,314
-23,767
-22,168
-20,545
-18,928
-17,347
-15,823
-14,378
-13,028
-11,789
-10,679
-9,716
-8,918
-8,299
-7,871
-7,639
-7,619
-7,823
-8,263
-8,949
-9,881
-11,051
-12,452
-14,067
-15,88
-17,87
-19,996
-22,217
-24,488
-26,764
-29,019
-31,227
-33,338
-35,296
-37,022
-38,448
-39,568
-40,397
-40,969
-41,337
-41,495
-41,472
-41,402
-41,319
-41,188
-40,931
-40,246
-38,864
-36,843
-34,227
-31,081
-27,814
-24,753
-22,323
-21,468
-22,942
-26,971
-33,616
-42,416
-52,264
-62,208
-71,093
-77,304
-79,076
-74,57
-62,764
-43,428
-18,343
8,59
36,022
64,066
93,943
130,442
170,525
203,701
220,346
207,746
164,97
105,606
41,807
-12,426
-50,609
-78,419
-98,826
-113,676
-123,822
-126,19
-120,688
-110,434
-98,174
-86,578
-77,695
-72,187
-70,278
-72,007
-76,63
-82,723
-88,949
-94,462
-98,624
-101,183
-102,135
-101,44
-99,314
-96,221
-92,593
-88,693
-84,658
-80,506
-76,225
-71,864
-67,421
-62,838
-58,02
-52,864
-47,342
-41,476
-35,289
-28,805
-22,034
-14,992
-7,73
-0,301
7,275
15,007
22,935
31,111
39,562
48,317
57,408
66,84
76,619
86,736
97,152
107,82
118,679
129,662
140,711
151,742
162,638
173,254
183,423
192,978
201,771
209,641
216,415
221,943
226,1
228,797
229,986
229,644
227,774
224,4
219,571
213,372
205,93
197,4
187,968
177,812
167,092
155,979
144,656
133,29
122,03
110,997
100,279
89,953
80,082
70,713
61,875
53,569
45,772
38,439
31,504
24,916
18,643
12,646
6,892
1,355
-3,984
-9,129
-14,065
-18,782
-23,27
-27,519
-31,518
-35,247
-38,679
-41,783
-44,522
-46,875
-48,83
-50,382
-51,531
-52,282
-52,648
-52,65
-52,322
-51,695
-50,798
-49,66
-48,314
-46,795
-45,138
-43,381
-41,554
-39,683
-37,797
-35,924
-34,093
-32,335
-30,674
-29,127
-27,715
-26,453
-25,352
-24,414
-23,624
-22,959
-22,405
-21,952
-21,597
-21,342
-21,172
-21,071
-21,038
-21,06
-21,132
-21,26
-21,425
-21,623
-21,884
-22,241
-22,768
-23,551
-24,638
-26,063
-27,839
-29,973
-32,515
-35,504
-38,953
-42,882
-47,252
-52,035
-57,291
-62,945
-68,788
-74,546
-79,706
-83,765
-86,565
-87,958
-87,795
-86,28
-83,65
-80,332
-77,406
-75,915
-76,239
-78,503
-82,407
-86,948
-91,245
-94,304
-93,983
-87,631
-73,228
-49,323
-16,805
20,608
59,914
99,958
142,937
192,659
248,443
302,052
336,777
335,956
292,37
211,89
113,944
19,45
-58,398
-115,598
-156,818
-186,473
-204,768
-209,928
-199,959
-176,76
-145,695
-112,313
-81,345
-55,812
-37,673
-28,48
-28,376
-35,696
-47,443
-60,585
-73,001
-83,408
-90,811
-94,272
-93,389
-88,72
-81,723
-73,867
-66,003
-58,47
-51,372
-44,91
-39,251
-34,31
-29,711
-24,895
-19,431
-13,136
-5,939
2,056
10,52
19,312
28,497
37,832
46,934
55,417
62,718
68,91
74,839
80,99
87,485
94,668
102,878
112,629
124,87
139,668
156,071
173,454
191,394
209,387
227,169
244,191
259,425
272,528
283,861
293,562
301,756
308,509
313,614
317,107
319,302
320,202
319,548
317,19
312,998
306,978
299,346
290,251
279,802
268,225
255,83
242,933
229,827
216,724
203,745
191,007
178,628
166,711
155,338
144,552
134,372
124,813
115,888
107,593
99,889
92,703
85,929
79,472
73,269
67,281
61,487
55,873
50,432
45,17
40,111
35,286
30,723
26,442
22,455
18,78
15,443
12,477
9,922
7,802
6,123
4,882
4,069
3,666
3,654
4,003
4,67
5,614
6,798
8,185
9,74
11,423
13,191
15,002
16,818
18,602
20,325
21,964
23,494
24,896
26,149
27,223
28,097
28,752
29,168
29,332
29,241
28,898
28,318
27,532
26,567
25,449
24,209
22,849
21,374
19,789
18,103
16,342
14,535
12,691
10,817
8,929
7,023
5,081
3,066
0,889
-1,521
-4,196
-7,164
-10,434
-14,002
-17,876
-22,071
-26,557
-31,327
-36,448
-41,891
-47,532
-53,127
-58,245
-62,397
-65,265
-66,618
-66,106
-63,744
-59,953
-55,506
-51,682
-49,692
-50,388
-54,033
-60,689
-70,19
-79,667
-85,511
-85,827
-77,046
-62,189
-48,087
-31,41
-11,137
21,575
84,679
173,441
276,707
373,842
424,997
413,386
339,685
214,645
76,179
-44,44
-132,636
-178,175
-192,092
-192,233
-186,768
-184,072
-183,981
-179,52
-169,707
-155,076
-138,252
-124,757
-116,921
-114,725
-117,265
-122,478
-128,676
-134,631
-139,354
-142,268
-143,034
-141,68
-138,524
-133,975
-128,632
-123,109
-117,73
-112,649
-107,897
-103,37
-99,026
-94,812
-90,573
-86,122
-81,297
-76,018
-70,313
-64,251
-57,873
-51,179
-44,132
-36,715
-28,948
-20,83
-12,327
-3,372
6,14
16,261
26,975
38,229
49,941
62,042
74,492
87,254
100,267
113,439
126,662
139,833
152,854
165,601
177,897
189,501
200,152
209,627
217,764
224,452
229,613
233,176
235,068
235,225
233,615
230,252
225,157
218,359
209,897
199,825
188,272
175,456
161,61
146,96
131,708
116,01
100,019
83,901
67,825
51,969
36,502
21,552
7,245
-6,284
-18,914
-30,509
-40,993
-50,377
-58,68
-65,936
-72,186
-77,443
-81,734
-85,133
-87,719
-89,593
-90,88
-91,668
-92,043
-92,108
-91,961
-91,722
-91,487
-91,295
-91,176
-91,151
-91,233
-91,448
-91,808
-92,286
-92,85
-93,457
-94,04
-94,564
-95,007
-95,341
-95,548
-95,602
-95,484
-95,2
-94,766
-94,201
-93,529
-92,769
-91,947
-91,108
-90,299
-89,57
-88,981
-88,563
-88,334
-88,298
-88,439
-88,743
-89,204
-89,799
-90,506
-91,292
-92,12
-92,971
-93,825
-94,658
-95,451
-96,177
-96,808
-97,367
-97,905
-98,478
-99,179
-100,061
-101,149
-102,511
-104,208
-106,32
-108,935
-112,087
-115,776
-120,028
-124,897
-130,375
-136,362
-142,574
-148,56
-153,87
-158,104
-160,999
-162,304
-161,949
-160,188
-157,449
-154,57
-152,63
-152,46
-154,445
-158,682
-164,463
-170,4
-175,287
-176,857
-171,904
-157,766
-131,974
-95,005
-51,534
-5,821
39,06
86,194
144,836
218,541
304,127
382,262
421,219
398,81
303,357
150,312
-22,72
-180,104
-286,563
-329,217
-315,147
-257,489
-183,904
-116,682
-72,162
-61,995
-80,199
-115,023
-151,211
-175,126
-184,265
-182,215
-176,486
-172,919
-172,45
-173,636
-173,485
-170,571
-165,443
-158,864
-151,854
-145,041
-138,384
-131,886
-125,578
-119,349
-113,175
-107,102
-101,15
-95,323
-89,628
-84,008
-78,366
-72,665
-66,852
-60,866
-54,679
-48,238
-41,48
-34,382
-26,929
-19,084
-10,823
-2,091
7,189
17,043
27,473
38,453
49,923
61,823
74,075
86,579
99,236
111,937
124,542
136,919
148,921
160,357
171,056
180,837
189,489
196,862
202,829
207,283
210,165
211,432
211,061
209,082
205,54
200,495
194,052
186,333
177,488
167,726
157,238
146,211
134,853
123,33
111,787
100,367
89,175
78,295
67,805
57,752
48,165
39,08
30,497
22,404
14,768
7,517
0,595
-6,038
-12,43
-18,604
-24,575
-30,358
-35,947
-41,321
-46,465
-51,357
-55,972
-60,301
-64,322
-68,008
-71,333
-74,261
-76,765
-78,837
-80,47
-81,669
-82,446
-82,815
-82,802
-82,445
-81,778
-80,835
-79,652
-78,262
-76,699
-75,001
-73,202
-71,334
-69,429
-67,509
-65,598
-63,72
-61,893
-60,137
-58,469
-56,908
-55,475
-54,191
-53,076
-52,143
-51,403
-50,869
-50,548
-50,454
-50,597
-50,98
-51,603
-52,459
-53,542
-54,845
-56,352
-58,035
-59,854
-61,755
-63,693
-65,641
-67,567
-69,436
-71,204
-72,806
-74,193
-75,354
-76,299
-77,067
-77,702
-78,203
-78,603
-78,985
-79,383
-79,8
-80,129
-80,08
-79,386
-77,901
-75,576
-72,477
-68,903
-65,246
-62,117
-60,457
-61,162
-64,977
-72,22
-82,655
-95,435
-109,248
-122,436
-132,874
-138,325
-136,652
-126,454
-107,334
-79,952
-45,968
-7,524
32,081
68,644
98,215
117,23
124,541
122,004
109,512
85,994
49,848
-3,409
-69,007
-134,477
-188,07
-215,007
-213,192
-194,324
-168,655
-148,312
-137,855
-131,074
-124,7
-116,873
-107,566
-100,803
-98,021
-98,219
-100,398
-102,851
-104,553
-105,347
-104,97
-103,225
-100,217
-96,257
-91,752
-87,147
-82,667
-78,334
-74,133
-69,991
-65,805
-61,44
-56,74
-51,58
-45,92
-39,802
-33,286
-26,445
-19,33
-11,977
-4,424
3,307
11,196
19,215
27,344
35,56
43,838
52,141
60,461
68,813
77,234
85,793
94,539
103,484
112,641
122,007
131,574
141,337
151,265
161,308
171,413
181,514
191,526
201,358
210,868
219,867
228,173
235,579
241,915
247,07
250,935
253,406
254,401
253,836
251,648
247,818
242,326
235,148
226,323
215,911
204,042
190,927
176,762
161,764
146,147
130,08
113,749
97,359
81,1
65,165
49,772
35,092
21,305
8,618
-2,841
-12,972
-21,725
-29,131
-35,218
-40,022
-43,611
-46,046
-47,399
-47,784
-47,313
-46,11
-44,353
-42,191
-39,772
-37,273
-34,817
-32,502
-30,414
-28,587
-27,046
-25,823
-24,919
-24,33
-24,058
-24,075
-24,343
-24,823
-25,43
-26,1
-26,784
-27,418
-27,968
-28,415
-28,74
-28,948
-29,059
-29,087
-29,052
-28,982
-28,894
-28,819
-28,791
-28,848
-29,036
-29,397
-29,955
-30,73
-31,731
-32,956
-34,394
-36,024
-37,815
-39,732
-41,749
-43,834
-45,947
-48,055
-50,118
-52,096
-53,956
-55,666
-57,2
-58,549
-59,713
-60,7
-61,537
-62,252
-62,868
-63,413
-63,887
-64,294
-64,652
-64,976
-65,291
-65,625
-65,996
-66,409
-66,835
-67,2
-67,417
-67,349
-66,813
-65,66
-63,747
-61,056
-57,873
-54,544
-51,353
-48,625
-46,452
-44,775
-43,652
-42,458
-39,679
-33,843
-23,512
-8,885
7,552
23,932
39,987
58,999
86,27
123,372
165,5
198,383
204,693
172,344
99,526
1,298
-98,497
-175,26
-211,777
-207,492
-173,904
-130,256
-93,201
-69,58
-58,711
-53,106
-47,258
-40,692
-34,861
-33,022
-36,233
-42,614
-50,065
-56,923
-62,279
-66,064
-68,338
-69,041
-68,373
-66,794
-64,795
-62,619
-60,298
-57,734
-54,783
-51,41
-47,592
-43,256
-38,35
-32,874
-26,881
-20,451
-13,666
-6,574
0,791
8,386
16,174
24,128
32,241
40,501
48,895
57,418
66,066
74,869
83,895
93,193
102,796
112,701
122,86
133,222
143,738
154,33
164,907
175,344
185,474
195,163
204,31
212,803
220,543
227,39
233,161
237,716
240,954
242,815
243,291
242,38
240,082
236,45
231,572
225,579
218,651
210,929
202,512
193,513
184,038
174,223
164,248
154,249
144,327
134,57
125,036
115,785
106,885
98,355
90,18
82,323
74,719
67,335
60,171
53,225
46,495
39,972
33,627
27,457
21,48
15,71
10,162
4,846
-0,235
-5,062
-9,593
-13,789
-17,606
-21,017
-24,015
-26,593
-28,752
-30,496
-31,829
-32,768
-33,34
-33,568
-33,475
-33,087
-32,43
-31,534
-30,44
-29,187
-27,815
-26,363
-24,864
-23,348
-21,84
-20,364
-18,946
-17,611
-16,389
-15,301
-14,366
-13,596
-13,003
-12,596
-12,372
-12,317
-12,4
-12,59
-12,864
-13,215
-13,643
-14,141
-14,703
-15,314
-15,96
-16,646
-17,376
-18,144
-18,947
-19,778
-20,646
-21,596
-22,706
-24,047
-25,677
-27,616
-29,864
-32,42
-35,272
-38,404
-41,76
-45,242
-48,771
-52,265
-55,669
-58,979
-62,14
-65,04
-67,6
-69,653
-70,985
-71,497
-71,022
-69,265
-66,09
-61,395
-54,998
-47,08
-38,311
-29,088
-19,705
-11,051
-2,119
8,32
18,973
30,72
41,532
46,742
48,983
50,41
56,813
80,864
124,975
184,928
249,559
296,068
306,629
274,168
202,215
106,669
9,297
-71,728
-126,847
-152,518
-154,791
-145,303
-130,976
-118,364
-109,35
-99,4
-87,646
-74,307
-60,383
-49,857
-44,474
-43,628
-46,339
-50,808
-55,278
-58,952
-61,383
-62,117
-61,101
-58,569
-54,796
-50,257
-45,515
-40,813
-36,237
-31,845
-27,532
-23,203
-18,784
-14,09
-8,974
-3,386
2,676
9,149
15,95
23,041
30,408
38,048
45,972
54,183
62,703
71,587
80,884
90,658
100,929
111,663
122,832
134,406
146,357
158,673
171,312
184,202
197,256
210,367
223,402
236,216
248,617
260,368
271,236
280,978
289,396
296,359
301,75
305,48
307,486
307,713
306,152
302,845
297,845
291,23
283,113
273,628
262,969
251,391
239,136
226,45
213,542
200,57
187,688
175,033
162,714
150,822
139,422
128,539
118,204
108,446
99,263
90,642
82,527
74,818
67,44
60,336
53,465
46,815
40,37
34,099
28,003
22,099
16,404
10,945
5,734
0,76
-3,958
-8,381
-12,464
-16,144
-19,394
-22,22
-24,627
-26,636
-28,255
-29,472
-30,299
-30,777
-30,926
-30,762
-30,292
-29,5
-28,423
-27,146
-25,747
-24,303
-22,868
-21,454
-20,088
-18,798
-17,617
-16,596
-15,777
-15,183
-14,863
-14,881
-15,291
-16,17
-17,528
-19,301
-21,433
-23,856
-26,511
-29,375
-32,416
-35,603
-38,914
-42,319
-45,774
-49,241
-52,654
-55,955
-59,1
-62,016
-64,671
-67,084
-69,262
-71,268
-73,194
-75,095
-77,044
-79,097
-81,245
-83,551
-86,131
-89,002
-92,12
-95,267
-97,995
-99,958
-100,898
-100,488
-98,576
-95,224
-90,659
-85,716
-81,718
-79,935
-81,665
-87,844
-98,446
-112,853
-129,97
-147,41
-162,091
-170,455
-167,914
-152,424
-125,63
-89,421
-46,84
3,404
69,748
154,365
253,007
350,639
415,989
427,128
375,686
267,535
135,324
11,174
-84,762
-139,204
-162,997
-175,554
-184,691
-195,837
-203,377
-192,211
-162,644
-124,323
-88,358
-72,147
-79,453
-99,279
-122,638
-138,516
-142,483
-141,095
-138,284
-136,65
-137,341
-137,145
-134,644
-130,405
-124,933
-119,457
-114,619
-110,168
-105,96
-101,948
-98,056
-94,262
-90,512
-86,684
-82,693
-78,506
-74,085
-69,428
-64,543
-59,414
-54,004
-48,257
-42,134
-35,606
-28,644
-21,181
-13,107
-4,331
5,201
15,485
26,47
38,103
50,328
63,09
76,335
89,966
103,85
117,848
131,815
145,568
158,903
171,557
183,216
193,623
202,577
209,92
215,56
219,421
221,434
221,567
219,802
216,149
210,66
203,41
194,495
184,089
172,404
159,702
146,296
132,442
118,346
104,192
90,106
76,185
62,513
49,165
36,216
23,772
11,917
0,711
-9,796
-19,618
-28,802
-37,419
-45,577
-53,348
-60,778
-67,896
-74,695
-81,134
-87,149
-92,682
-97,698
-102,218
-106,28
-109,91
-113,143
-115,985
-118,431
-120,458
-122,025
-123,103
-123,669
-123,713
-123,233
-122,261
-120,867
-119,144
-117,193
-115,072
-112,81
-110,436
-107,963
-105,415
-102,828
-100,244
-97,715
-95,295
-93,05
-91,056
-89,411
-88,195
-87,438
-87,118
-87,164
-87,523
-88,163
-89,048
-90,153
-91,442
-92,87
-94,42
-96,082
-97,844
-99,675
-101,515
-103,27
-104,865
-106,275
-107,507
-108,624
-109,693
-110,77
-111,952
-113,329
-114,962
-116,915
-119,212
-121,85
-124,858
-128,261
-132,042
-136,205
-140,763
-145,64
-150,727
-155,783
-160,338
-163,9
-166,138
-166,848
-165,925
-163,452
-159,58
-154,731
-150,004
-146,664
-145,435
-146,511
-149,497
-153,561
-158,068
-161,667
-161,381
-154,116
-137,315
-110,934
-78,465
-41,139
1,708
52,374
115,071
182,686
240,554
274,449
269,662
228,729
165,286
89,309
12,491
-64,614
-144,143
-217,047
-274,913
-305,509
-303,075
-277,307
-239,022
-201,037
-171,104
-146,727
-126,053
-107,796
-92,261
-83,137
-81,897
-87,147
-96,238
-105,904
-114,266
-120,682
-124,769
-126,27
-124,795
-120,645
-115,042
-109,033
-103,233
-97,897
-92,888
-88,142
-83,878
-80,002
-76,1
-71,889
-67,16
-61,862
-56,171
-50,173
-43,831
-37,18
-30,278
-23,154
-15,865
-8,413
-0,733
7,216
15,459
24,038
32,965
42,249
51,899
61,902
72,238
82,901
93,87
105,1
116,517
128,016
139,469
150,747
161,686
172,074
181,682
190,267
197,627
203,628
208,171
211,181
212,605
212,388
210,492
206,947
201,814
195,163
187,094
177,716
167,174
155,714
143,622
131,174
118,62
106,133
93,85
81,904
70,409
59,468
49,17
39,552
30,626
22,432
14,998
8,345
2,477
-2,7
-7,335
-11,544
-15,427
-19,039
-22,401
-25,551
-28,526
-31,333
-33,974
-36,433
-38,683
-40,741
-42,636
-44,391
-46,036
-47,542
-48,84
-49,893
-50,677
-51,186
-51,434
-51,427
-51,16
-50,664
-49,98
-49,15
-48,223
-47,217
-46,136
-44,987
-43,772
-42,512
-41,252
-40,016
-38,826
-37,704
-36,669
-35,748
-34,978
-34,375
-33,939
-33,669
-33,559
-33,616
-33,851
-34,27
-34,875
-35,657
-36,6
-37,7
-38,953
-40,34
-41,835
-43,387
-44,931
-46,419
-47,819
-49,112
-50,279
-51,286
-52,088
-52,646
-52,946
-53,016
-52,889
-52,588
-52,13
-51,504
-50,754
-50,03
-49,416
-48,898
-48,356
-47,449
-45,867
-43,632
-40,767
-37,25
-33,348
-29,329
-25,734
-23,916
-25,079
-29,673
-37,882
-49,201
-62,387
-76,619
-90,17
-99,637
-102,004
-94,51
-77,093
-54,251
-29,829
-5,668
22,28
65,718
130,392
210,852
286,577
321,018
286,921
181,386
26,903
-127,746
-236,228
-279,076
-258,753
-202,328
-142,104
-92,045
-60,257
-43,145
-31,936
-28,193
-27,634
-28,082
-30,784
-31,168
-31,288
-33,391
-36,285
-41,132
-46,213
-49,52
-51,296
-51,47
-50,445
-48,683
-46,097
-42,949
-39,359
-35,102
-30,646
-25,038
-17,041
-8,303
0,554
6,558
4,681
-3,687
-15,13
-22,393
-14,883
10,556
49,092
88,722
115,513
120,861
107,247
87,215
72,183
70,511
82,557
99,928
116,931
130,102
138,603
145,816
153,301
160,999
169,042
176,846
184,24
191,704
199,359
207,085
214,815
222,398
229,674
236,509
242,741
248,165
252,568
255,796
257,708
258,189
257,172
254,616
250,474
244,694
237,284
228,296
217,844
206,122
193,297
179,523
164,971
149,834
134,365
118,849
103,547
88,665
74,38
60,852
48,249
36,773
26,551
17,651
10,09
3,81
-1,232
-5,065
-7,744
-9,363
-10,06
-10,01
-9,397
-8,341
-6,952
-5,343
-3,63
-1,965
-0,46
0,822
1,846
2,609
3,103
3,306
3,208
2,84
2,25
1,505
0,687
-0,172
-1,049
-1,913
-2,736
-3,473
-4,095
-4,599
-5,001
-5,314
-5,547
-5,706
-5,805
-5,883
-5,989
-6,17
-6,476
-6,932
-7,554
-8,367
-9,385
-10,622
-12,084
-13,759
-15,624
-17,669
-19,882
-22,247
-24,734
-27,287
-29,84
-32,34
-34,743
-37,022
-39,154
-41,105
-42,836
-44,302
-45,477
-46,374
-47,026
-47,467
-47,733
-47,815
-47,736
-47,624
-47,566
-47,565
-47,519
-47,065
-45,817
-43,71
-40,797
-37,135
-32,978
-28,551
-24,26
-21,312
-21,052
-24,101
-30,564
-39,872
-50,839
-62,629
-73,943
-81,815
-82,99
-75,004
-57,873
-34,727
-8,496
19,95
54,614
100,922
158,365
219,785
267,591
281,218
249,016
171,126
64,472
-44,523
-130,706
-178,339
-187,454
-168,992
-140,327
-115,548
-99,32
-90,822
-84,305
-75,416
-64,87
-55,007
-49,077
-48,601
-52,462
-58,693
-65,321
-71,23
-75,9
-79,035
-80,541
-80,443
-79,004
-76,703
-73,995
-71,112
-68,164
-65,167
-62,067
-58,808
-55,292
-51,404
-47,052
-42,197
-36,861
-31,074
-24,871
-18,287
-11,348
-4,087
3,452
11,243
19,282
27,553
36,044
44,743
53,635
62,74
72,103
81,727
91,598
101,674
111,872
122,114
132,314
142,349
152,118
161,527
170,478
178,906
186,747
193,912
200,303
205,799
210,249
213,561
215,678
216,563
216,238
214,748
212,164
208,619
204,23
199,088
193,283
186,872
179,909
172,483
164,683
156,615
148,416
140,189
132,02
123,997
116,161
108,532
101,108
93,84
86,688
79,642
72,7
65,881
59,215
52,714
46,395
40,279
34,366
28,658
23,163
17,878
12,817
8,004
3,469
-0,741
-4,582
-8,031
-11,072
-13,7
-15,92
-17,739
-19,168
-20,231
-20,946
-21,331
-21,408
-21,197
-20,724
-20,022
-19,124
-18,072
-16,905
-15,666
-14,387
-13,099
-11,832
-10,615
-9,476
-8,446
-7,551
-6,808
-6,234
-5,844
-5,646
-5,646
-5,837
-6,197
-6,706
-7,34
-8,074
-8,901
-9,808
-10,78
-11,803
-12,855
-13,932
-15,044
-16,201
-17,406
-18,669
-19,998
-21,416
-22,985
-24,757
-26,79
-29,149
-31,861
-34,946
-38,42
-42,278
-46,503
-51,043
-55,813
-60,711
-65,649
-70,535
-75,299
-79,86
-84,059
-87,71
-90,578
-92,396
-92,953
-92,065
-89,585
-85,399
-79,562
-72,361
-64,18
-55,492
-46,734
-38,039
-29,384
-20,793
-11,553
-0,316
13,759
31,825
53,554
75,988
98,704
122,288
148,128
180,766
216,477
244,715
255,173
235,566
186,285
120,444
50,315
-10,379
-56,082
-91,126
-117,084
-135,43
-146,505
-147,923
-140,647
-127,719
-112,011
-96,615
-83,836
-74,739
-69,865
-69,113
-71,541
-75,87
-80,751
-85,202
-88,541
-90,319
-90,416
-88,886
-86,037
-82,408
-78,558
-74,784
-71,209
-67,864
-64,655
-61,526
-58,384
-55,023
-51,251
-46,963
-42,135
-36,82
-31,101
-25,018
-18,58
-11,786
-4,63
2,886
10,778
19,09
27,889
37,251
47,207
57,732
68,785
80,321
92,301
104,699
117,487
130,616
144,01
157,572
171,186
184,72
198,008
210,842
222,952
234,048
243,876
252,237
258,995
264,053
267,34
268,801
268,401
266,128
262,009
256,099
248,469
239,214
228,457
216,365
203,204
189,283
174,902
160,324
145,744
131,315
117,171
103,43
90,193
77,544
65,541
54,217
43,618
33,785
24,764
16,579
9,162
2,388
-3,884
-9,777
-15,362
-20,682
-25,787
-30,733
-35,561
-40,297
-44,938
-49,452
-53,839
-58,113
-62,31
-66,467
-70,552
-74,472
-78,124
-81,429
-84,33
-86,793
-88,749
-90,091
-90,743
-90,664
-89,868
-88,416
-86,353
-83,707
-80,516
-76,836
-72,779
-68,518
-64,204
-59,948
-55,858
-52,037
-48,64
-45,881
-43,932
-42,909
-42,87
-43,82
-45,768
-48,721
-52,629
-57,387
-62,823
-68,731
-74,96
-81,413
-87,996
-94,604
-101,079
-107,229
-112,9
-117,996
-122,461
-126,248
-129,309
-131,615
-133,193
-134,163
-134,724
-135,074
-135,352
-135,658
-136,049
-136,623
-137,544
-138,859
-140,493
-142,251
-143,794
-144,814
-145,109
-144,503
-142,796
-140,033
-136,539
-132,864
-129,963
-128,922
-130,537
-135,128
-142,684
-152,409
-162,717
-172,046
-177,961
-177,068
-166,575
-144,5
-111,38
-71,209
-27,899
16,91
65,964
123,799
189,022
252,908
297,859
304,899
266,278
184,041
72,028
-48,84
-160,982
-247,665
-298,692
-313,514
-298,689
-269,354
-239,819
-218,178
-205,769
-196,879
-187,411
-177,091
-167,628
-162,66
-163,144
-167,224
-172,965
-178,219
-181,746
-183,423
-183,051
-180,596
-176,478
-171,24
-165,515
-159,935
-154,767
-150,025
-145,697
-141,697
-137,921
-134,256
-130,523
-126,525
-122,148
-117,369
-112,218
-106,734
-100,932
-94,788
-88,296
-81,483
-74,384
-67,013
-59,362
-51,412
-43,138
-34,545
-25,639
-16,403
-6,839
3,057
13,282
23,805
34,579
45,545
56,636
67,784
78,899
89,853
100,498
110,665
120,19
128,928
136,72
143,389
148,784
152,782
155,291
156,264
155,679
153,536
149,864
144,716
138,188
130,414
121,562
111,822
101,379
90,402
79,071
67,581
56,107
44,803
33,795
23,174
13,019
3,395
-5,653
-14,099
-21,947
-29,227
-35,988
-42,296
-48,205
-53,753
-58,98
-63,926
-68,623
-73,095
-77,35
-81,378
-85,173
-88,73
-92,042
-95,099
-97,882
-100,367
-102,525
-104,326
-105,752
-106,798
-107,465
-107,763
-107,707
-107,315
-106,62
-105,66
-104,476
-103,102
-101,569
-99,906
-98,144
-96,313
-94,445
-92,572
-90,72
-88,912
-87,173
-85,528
-84,005
-82,626
-81,409
-80,363
-79,494
-78,815
-78,331
-78,05
-77,984
-78,138
-78,513
-79,117
-79,942
-80,968
-82,19
-83,577
-85,087
-86,687
-88,316
-89,908
-91,467
-92,988
-94,396
-95,627
-96,593
-97,2
-97,483
-97,524
-97,311
-96,821
-96,24
-95,836
-95,606
-95,604
-95,815
-95,576
-95,821
-97,493
-98,668
-98,8
-94,452
-81,802
-65,865
-50,369
-41,148
-45,642
-58,676
-75,449
-92,247
-102,642
-109,099
-113,734
-114,881
-112,277
-102,721
-83,734
-55,858
-19,714
21,139
62,323
101,903
135,606
163,025
185,475
195,827
190,321
164,922
114,71
49,196
-21,338
-88,609
-142,371
-182,127
-209,265
-223,434
-226,718
-219,148
-201,869
-178,187
-151,248
-124,941
-102,063
-83,831
-70,959
-63,217
-59,658
-59,31
-60,749
-62,27
-62,883
-62,069
-59,641
-55,879
-51,12
-45,649
-39,91
-34,374
-29,258
-24,626
-20,394
-16,33
-12,26
-8,039
-3,542
1,316
6,583
12,28
18,41
24,952
31,878
39,168
46,818
54,82
63,152
71,807
80,76
90,006
99,576
109,454
119,612
130,014
140,595
151,283
162,007
172,669
183,15
193,352
203,169
212,514
221,326
229,517
236,986
243,611
249,232
253,74
257,079
259,212
260,137
259,879
258,48
256,031
252,674
248,523
243,677
238,216
232,189
225,672
218,772
211,601
204,298
196,975
189,709
182,569
175,615
168,874
162,359
156,043
149,852
143,743
137,703
131,728
125,844
120,06
114,374
108,787
103,298
97,908
92,629
87,463
82,413
77,495
72,734
68,172
63,869
59,866
56,185
52,842
49,837
47,17
44,839
42,831
41,124
39,701
38,541
37,629
36,95
36,482
36,198
36,07
36,062
36,145
36,286
36,456
36,628
36,781
36,895
36,959
36,961
36,887
36,727
36,47
36,105
35,619
34,995
34,213
33,258
32,117
30,789
29,277
27,583
25,707
23,652
21,423
19,033
16,498
13,828
11,031
8,124
5,136
2,116
-0,877
-3,794
-6,588
-9,227
-11,698
-13,987
-16,08
-17,966
-19,607
-20,998
-22,167
-23,146
-23,982
-24,698
-25,257
-25,715
-26,249
-26,933
-27,759
-28,515
-28,674
-27,957
-26,464
-24,234
-21,244
-17,569
-13,311
-9,246
-7,002
-7,557
-10,93
-16,83
-24,64
-33,58
-42,655
-49,509
-50,501
-44,203
-31,994
-15,529
4,691
32,833
75,728
134,426
200,013
254,177
277,491
259,826
206,323
135,034
63,974
4,977
-39,331
-75,045
-105,655
-130,936
-149,416
-157,31
-153,836
-141,828
-124,051
-103,797
-84,509
-68,008
-55,342
-47,293
-43,546
-43,191
-45,488
-49,285
-53,099
-56,066
-57,641
-57,499
-55,855
-53,032
-49,275
-44,988
-40,62
-36,385
-32,371
-28,553
-24,732
-20,725
-16,405
-11,664
-6,434
-0,696
5,55
12,288
19,466
27,031
34,939
43,151
51,647
60,425
69,47
78,738
88,172
97,707
107,302
116,945
126,605
136,215
145,673
154,878
163,76
172,282
180,417
188,122
195,335
201,979
207,991
213,336
217,975
221,857
224,9
227,009
228,144
228,329
227,643
226,162
223,929
220,97
217,302
212,969
208,024
202,521
196,495
189,972
182,996
175,639
168,007
160,21
152,321
144,362
136,32
128,191
119,995
111,763
103,524
95,294
87,092
78,951
70,924
63,067
55,418
47,994
40,795
33,818
27,076
20,6
14,432
8,607
3,146
-1,932
-6,609
-10,863
-14,681
-18,068
-21,041
-23,622
-25,826
-27,669
-29,162
-30,32
-31,167
-31,728
-32,033
-32,111
-31,991
-31,705
-31,289
-30,781
-30,216
-29,623
-29,026
-28,445
-27,903
-27,419
-27,014
-26,703
-26,499
-26,416
-26,471
-26,686
-27,079
-27,665
-28,451
-29,44
-30,631
-32,027
-33,631
-35,44
-37,448
-39,642
-42,004
-44,522
-47,181
-49,955
-52,806
-55,673
-58,495
-61,219
-63,803
-66,219
-68,434
-70,411
-72,11
-73,493
-74,531
-75,228
-75,604
-75,688
-75,522
-75,121
-74,532
-73,881
-73,248
-72,643
-71,966
-70,884
-69,037
-66,318
-62,742
-58,362
-53,393
-48,047
-42,765
-38,683
-37,07
-38,571
-43,227
-50,373
-58,938
-68,182
-76,657
-81,426
-79,478
-68,227
-47,713
-21,572
9,009
44,674
87,39
141,762
201,776
253,569
284,377
279,509
238,781
176,161
103,963
37,095
-17,026
-62,102
-98,986
-128,452
-150,46
-161,214
-160,244
-150,249
-134,567
-117,444
-102,156
-90,231
-82,521
-79,399
-80,387
-84,425
-90,04
-95,559
-99,826
-102,339
-102,88
-101,46
-98,311
-93,742
-88,273
-82,559
-76,967
-71,617
-66,525
-61,576
-56,703
-51,897
-47,06
-42,055
-36,783
-31,161
-25,174
-18,878
-12,287
-5,416
1,72
9,123
16,758
24,577
32,566
40,721
49,052
57,601
66,398
75,462
84,832
94,519
104,524
114,858
125,503
136,445
147,672
159,156
170,868
182,765
194,766
206,749
218,564
230,008
240,856
250,88
259,841
267,524
273,745
278,345
281,208
282,237
281,351
278,481
273,571
266,605
257,612
246,696
234,021
219,811
204,344
187,913
170,83
153,41
135,958
118,74
101,971
85,848
70,539
56,224
43,092
31,285
20,91
12,012
4,573
-1,462
-6,192
-9,764
-12,35
-14,141
-15,344
-16,122
-16,596
-16,88
-17,054
-17,209
-17,445
-17,825
-18,402
-19,214
-20,284
-21,624
-23,221
-25,011
-26,901
-28,797
-30,587
-32,186
-33,529
-34,54
-35,196
-35,51
-35,524
-35,305
-34,909
-34,369
-33,704
-32,941
-32,119
-31,307
-30,582
-29,999
-29,631
-29,561
-29,893
-30,75
-32,2
-34,229
-36,769
-39,744
-43,088
-46,759
-50,715
-54,872
-59,156
-63,502
-67,867
-72,247
-76,614
-80,904
-85,016
-88,827
-92,26
-95,309
-98,01
-100,4
-102,521
-104,409
-106,138
-107,827
-109,558
-111,379
-113,282
-115,22
-117,186
-119,182
-121,263
-123,562
-126,145
-129,03
-132,2
-135,39
-138,23
-140,546
-142,011
-142,227
-141,069
-138,17
-133,6
-128,575
-124,431
-122,331
-121,887
-120,465
-115,734
-106,474
-96,846
-95,563
-107,439
-134,261
-164,808
-175,355
-148,646
-70,717
53,464
194,392
323,147
406,386
421,559
371,843
265,974
125,266
-21,353
-156,356
-261,881
-325,215
-347,277
-328,028
-275,74
-209,245
-143,778
-98,207
-84,89
-99,972
-134,33
-171,666
-197,261
-207,873
-206,01
-199,136
-194,114
-192,354
-192,54
-191,851
-188,731
-183,685
-177,754
-172,098
-167,079
-162,423
-157,962
-153,558
-149,144
-144,746
-140,336
-135,858
-131,287
-126,594
-121,725
-116,634
-111,305
-105,719
-99,856
-93,687
-87,165
-80,269
-73,002
-65,347
-57,262
-48,687
-39,534
-29,757
-19,371
-8,41
3,068
14,997
27,331
40,005
52,924
65,982
79,058
92,02
104,74
117,05
128,736
139,574
149,327
157,804
164,878
170,439
174,409
176,73
177,353
176,275
173,54
169,206
163,345
156,064
147,479
137,769
127,167
115,898
104,189
92,237
80,191
68,197
56,386
44,865
33,723
23,023
12,793
3,067
-6,123
-14,775
-22,901
-30,549
-37,799
-44,71
-51,324
-57,68
-63,8
-69,712
-75,437
-80,973
-86,305
-91,424
-96,32
-100,983
-105,396
-109,515
-113,288
-116,672
-119,624
-122,135
-124,209
-125,839
-127,006
-127,695
-127,909
-127,661
-126,97
-125,827
-124,215
-122,144
-119,667
-116,883
-113,897
-110,778
-107,574
-104,308
-101,007
-97,721
-94,508
-91,414
-88,467
-85,7
-83,164
-80,951
-79,168
-77,87
-77,044
-76,62
-76,526
-76,728
-77,216
-77,982
-78,998
-80,219
-81,601
-83,123
-84,784
-86,56
-88,39
-90,162
-91,742
-93,041
-94,037
-94,762
-95,235
-95,45
-95,38
-94,99
-94,297
-93,363
-92,25
-90,988
-89,583
-88,001
-86,258
-84,529
-82,973
-81,617
-80,364
-78,907
-76,925
-74,431
-71,542
-68,212
-64,468
-60,413
-56,387
-53,328
-52,361
-54,258
-59,111
-66,582
-76,487
-86,663
-94,468
-98,965
-96,747
-90,244
-85,539
-79,201
-70,277
-50,088
-1,61
71,095
159,451
246,464
298,014
301,065
252,075
153,61
33,348
-87,244
-190,318
-255,444
-281,694
-272,219
-233,65
-181,666
-128,148
-84,807
-59,639
-54,443
-65,304
-81,967
-96,858
-104,012
-102,583
-98,616
-95,184
-94,251
-96,204
-97,69
-97,302
-95,271
-91,727
-87,732
-84,054
-80,528
-77,084
-73,723
-70,221
-66,418
-62,216
-57,468
-52,077
-46,065
-39,455
-32,266
-24,579
-16,469
-7,977
0,873
10,089
19,685
29,637
39,888
50,37
60,998
71,701
82,434
93,138
103,75
114,23
124,553
134,706
144,702
154,508
164,035
173,194
181,897
190,076
197,704
204,744
211,155
216,895
221,908
226,164
229,656
232,351
234,201
235,153
235,135
234,142
232,243
229,494
225,953
221,665
216,648
210,941
204,607
197,701
190,275
182,374
174,029
165,301
156,279
147,055
137,733
128,372
118,978
109,571
100,182
90,847
81,619
72,536
63,616
54,893
46,419
38,241
30,41
22,957
15,889
9,212
2,931
-2,939
-8,36
-13,307
-17,766
-21,726
-25,183
-28,132
-30,564
-32,486
-33,922
-34,898
-35,44
-35,575
-35,321
-34,704
-33,755
-32,51
-31,005
-29,28
-27,37
-25,315
-23,155
-20,931
-18,682
-16,442
-14,239
-12,101
-10,055
-8,129
-6,347
-4,731
-3,3
-2,074
-1,071
-0,309
0,196
0,434
0,401
0,097
-0,474
-1,307
-2,398
-3,734
-5,299
-7,071
-9,024
-11,132
-13,364
-15,683
-18,054
-20,434
-22,775
-25,042
-27,202
-29,24
-31,167
-32,971
-34,629
-36,135
-37,462
-38,627
-39,687
-40,655
-41,541
-42,348
-43,03
-43,628
-44,285
-44,972
-45,535
-45,781
-45,387
-44,277
-42,648
-40,444
-37,423
-33,587
-29,182
-24,825
-21,45
-19,365
-18,213
-17,739
-17,861
-18,4
-18,515
-16,332
-9,543
3,343
21,22
41,013
60,441
78,933
100,266
130,215
170,559
216,728
253,553
261,932
227,395
146,551
35,816
-78,185
-167,241
-211,318
-210,811
-179,572
-138,583
-106,025
-87,931
-81,463
-78,471
-72,971
-64,318
-54,807
-48,308
-46,222
-47,414
-50,338
-53,112
-54,724
-55,096
-54,085
-51,673
-48,168
-43,909
-39,312
-34,844
-30,681
-26,815
-23,234
-19,836
-16,482
-13,025
-9,271
-5,073
-0,404
4,691
10,145
15,897
21,932
28,258
34,858
41,716
48,808
56,112
63,631
71,36
79,261
87,276
95,34
103,426
111,557
119,794
128,185
136,738
145,425
154,198
163,017
171,825
180,546
189,075
197,271
205,008
212,195
218,765
224,656
229,779
234,009
237,188
239,196
239,962
239,453
237,666
234,599
230,281
224,785
218,232
210,792
202,612
193,804
184,454
174,648
164,493
154,126
143,702
133,341
123,13
113,139
103,428
94,063
85,086
76,506
68,283
60,348
52,66
45,204
37,987
31,023
24,307
17,823
11,559
5,527
-0,249
-5,742
-10,952
-15,888
-20,558
-24,967
-29,089
-32,889
-36,357
-39,485
-42,282
-44,768
-46,942
-48,811
-50,383
-51,65
-52,644
-53,403
-53,932
-54,258
-54,355
-54,09
-53,493
-52,716
-51,854
-51,086
-50,414
-49,558
-48,486
-47,416
-46,238
-44,673
-42,371
-38,732
-33,806
-28,398
-22,96
-17,662
-12,915
-9,131
-6,943
-7,368
-10,489
-15,378
-21,383
-28,036
-34,867
-41,677
-48,025
-53,059
-56,615
-59,237
-61,271
-63
-64,599
-65,93
-67,011
-68,157
-69,405
-70,556
-71,574
-72,427
-73,16
-73,988
-74,971
-76,015
-77,146
-78,466
-79,99
-81,703
-83,368
-84,519
-84,947
-84,674
-83,741
-82,167
-79,901
-76,961
-73,895
-71,825
-71,563
-73,296
-76,674
-80,99
-85,663
-89,969
-92,45
-90,748
-82,538
-66,485
-42,454
-11,233
26,079
67,817
111,353
152,822
187,618
211,978
223,443
220,602
203,159
171,894
128,629
77,098
22,691
-29,829
-76,219
-114,204
-144,525
-165,923
-176,574
-174,316
-154,719
-121,848
-86,049
-57,493
-48,772
-60,668
-82,563
-105,415
-118,709
-119,619
-114,961
-108,658
-103,709
-101,041
-97,548
-92,233
-85,804
-78,754
-71,972
-65,767
-59,744
-53,729
-47,778
-41,845
-35,844
-29,71
-23,378
-16,875
-10,273
-3,583
3,229
10,197
17,344
24,68
32,204
39,911
47,798
55,874
64,152
72,634
81,336
90,269
99,434
108,87
118,594
128,587
138,833
149,273
159,835
170,455
181,065
191,578
201,897
211,891
221,405
230,315
238,5
245,834
252,195
257,413
261,346
263,897
264,995
264,621
262,785
259,499
254,796
248,76
241,5
233,168
223,952
213,995
203,435
192,415
181,079
169,611
158,178
146,908
135,903
125,241
114,981
105,184
95,897
87,119
78,83
70,988
63,523
56,406
49,617
43,134
36,94
31,001
25,289
19,802
14,551
9,545
4,794
0,304
-3,922
-7,858
-11,474
-14,739
-17,616
-20,089
-22,155
-23,814
-25,07
-25,936
-26,422
-26,553
-26,364
-25,886
-25,149
-24,182
-23,015
-21,687
-20,241
-18,718
-17,157
-15,595
-14,061
-12,582
-11,184
-9,892
-8,73
-7,726
-6,898
-6,265
-5,846
-5,657
-5,704
-5,987
-6,491
-7,189
-8,062
-9,09
-10,258
-11,553
-12,963
-14,476
-16,081
-17,758
-19,494
-21,28
-23,107
-24,976
-26,897
-28,889
-31,003
-33,305
-35,855
-38,699
-41,849
-45,308
-49,093
-53,209
-57,676
-62,516
-67,682
-73,137
-78,879
-84,805
-90,761
-96,523
-101,638
-105,631
-108,267
-109,366
-108,813
-106,799
-103,562
-99,476
-95,499
-92,694
-91,591
-92,423
-95,027
-98,503
-101,975
-104,62
-104,379
-98,529
-85,03
-62,348
-31,443
3,941
41,041
78,77
118,728
163,776
212,471
258,134
288,286
289,474
254,398
181,577
79,341
-36,876
-149,797
-238,863
-290,245
-300,594
-276,738
-237,125
-198,842
-171,743
-157,471
-148,652
-139,407
-128,745
-118,357
-112,667
-113,522
-118,869
-126,238
-133,211
-138,398
-141,642
-142,834
-141,666
-138,104
-132,911
-126,955
-120,905
-115,197
-109,815
-104,664
-99,835
-95,387
-91,071
-86,602
-81,746
-76,331
-70,431
-64,153
-57,509
-50,494
-43,115
-35,399
-27,413
-19,213
-10,791
-2,125
6,801
15,991
25,409
35,028
44,848
54,871
65,099
75,526
86,113
96,814
107,568
118,307
128,974
139,482
149,707
159,517
168,764
177,316
185,079
191,943
197,77
202,44
205,848
207,904
208,561
207,786
205,555
201,881
196,791
190,345
182,652
173,845
164,059
153,419
142,003
129,89
117,21
104,094
90,667
77,073
63,425
49,847
36,492
23,471
10,875
-1,228
-12,819
-23,895
-34,443
-44,427
-53,775
-62,39
-70,227
-77,258
-83,46
-88,852
-93,45
-97,301
-100,512
-103,169
-105,333
-107,051
-108,338
-109,196
-109,656
-109,76
-109,573
-109,19
-108,68
-108,097
-107,5
-106,915
-106,358
-105,822
-105,249
-104,595
-103,844
-102,994
-102,064
-101,085
-100,068
-99,027
-97,976
-96,911
-95,831
-94,747
-93,661
-92,593
-91,569
-90,627
-89,821
-89,198
-88,776
-88,562
-88,546
-88,71
-89,043
-89,531
-90,151
-90,891
-91,75
-92,716
-93,781
-94,93
-96,138
-97,391
-98,68
-100,001
-101,375
-102,827
-104,398
-106,126
-108,027
-110,126
-112,457
-115,027
-117,842
-120,915
-124,216
-127,769
-131,644
-135,762
-139,977
-144,039
-147,506
-150,031
-151,339
-151,027
-148,86
-144,928
-139,45
-133,187
-127,312
-122,715
-120,389
-121,249
-125,367
-132,28
-141,166
-150,183
-156,927
-158,883
-152,738
-135,291
-106,572
-69,471
-26,806
17,635
65,492
124,354
194,494
271,761
342,532
380,099
368,053
299,528
179,859
36,754
-102,021
-211,643
-274,162
-292,749
-279,547
-252,008
-226,355
-207,697
-194,849
-182,28
-166,518
-148,905
-132,358
-120,862
-115,949
-116,278
-120,063
-125,09
-129,334
-132,166
-133,426
-132,676
-130,199
-126,519
-121,53
-117,177
-115,374
-114,408
-113,752
-109,846
-98,25
-83,508
-68,657
-58,204
-58,409
-63,524
-68,712
-70,677
-64,016
-52,643
-40,512
-28,54
-19,175
-11,031
-2,322
6,617
16,044
25,838
35,644
45,723
56,257
67,181
78,468
90,101
102,039
114,215
126,548
138,942
151,284
163,475
175,418
186,973
197,966
208,257
217,685
226,069
233,283
239,205
243,743
246,85
248,483
248,625
247,287
244,48
240,226
234,586
227,613
219,391
210,052
199,688
188,422
176,41
163,773
150,637
137,119
123,307
109,299
95,193
81,073
67,045
53,229
39,732
26,695
14,232
2,423
-8,611
-18,787
-28,052
-36,341
-43,618
-49,857
-55,027
-59,121
-62,159
-64,16
-65,185
-65,323
-64,679
-63,407
-61,645
-59,509
-57,144
-54,663
-52,16
-49,735
-47,456
-45,376
-43,552
-42,02
-40,796
-39,902
-39,327
-39,042
-39,001
-39,123
-39,341
-39,607
-39,864
-40,078
-40,225
-40,284
-40,252
-40,146
-39,974
-39,751
-39,5
-39,236
-38,986
-38,785
-38,662
-38,655
-38,797
-39,105
-39,599
-40,29
-41,176
-42,242
-43,47
-44,824
-46,274
-47,795
-49,345
-50,879
-52,359
-53,749
-55,042
-56,259
-57,4
-58,466
-59,443
-60,282
-60,978
-61,549
-62,004
-62,385
-62,7
-62,892
-63,016
-63,212
-63,52
-63,937
-64,212
-63,822
-62,513
-60,274
-57,056
-52,865
-47,723
-41,757
-35,851
-31,45
-29,493
-30,298
-33,723
-39,295
-46,411
-53,94
-59,563
-59,869
-53,584
-42,565
-28,936
-14,757
4,025
37,586
90,636
161,307
233,091
276,743
270,704
203,427
85,912
-49,38
-170,376
-247,712
-271,812
-254,675
-214,261
-173,639
-145,275
-128,918
-120,368
-111,16
-97,929
-82,82
-68,519
-58,712
-54,389
-53,891
-55,597
-57,641
-58,843
-59,008
-57,94
-55,626
-52,346
-48,418
-44,325
-40,621
-37,569
-35,191
-33,403
-31,986
-30,722
-29,46
-28,012
-26,206
-23,944
-21,18
-17,926
-14,194
-9,964
-5,152
0,388
6,772
14,059
22,296
31,504
41,675
52,812
64,857
77,68
91,181
105,261
119,845
134,899
150,341
166,045
181,847
197,529
212,874
227,697
241,771
254,845
266,702
277,122
285,975
293,236
298,868
302,836
305,115
305,656
304,469
301,621
297,188
291,272
284,005
275,525
266,039
255,811
245,079
234,073
222,966
211,856
200,847
190,042
179,523
169,366
159,62
150,298
141,425
133,035
125,126
117,686
110,658
103,936
97,441
91,11
84,898
78,795
72,79
66,872
61,051
55,354
49,807
44,444
39,288
34,34
29,62
25,151
20,968
17,118
13,631
10,521
7,796
5,456
3,496
1,906
0,664
-0,268
-0,924
-1,335
-1,531
-1,538
-1,388
-1,119
-0,769
-0,37
0,048
0,465
0,856
1,196
1,465
1,651
1,743
1,731
1,594
1,302
0,833
0,178
-0,664
-1,679
-2,86
-4,199
-5,68
-7,278
-8,97
-10,738
-12,578
-14,508
-16,53
-18,632
-20,773
-22,892
-24,946
-26,913
-28,782
-30,559
-32,257
-33,901
-35,534
-37,219
-38,989
-40,844
-42,761
-44,703
-46,628
-48,515
-50,369
-52,185
-54,005
-55,942
-57,957
-59,869
-61,459
-62,41
-62,549
-61,929
-60,422
-57,744
-53,969
-49,544
-45,206
-41,95
-40,158
-39,481
-39,633
-40,515
-41,879
-42,607
-40,527
-33,217
-18,866
1,254
23,004
43,835
63,547
86,817
122,796
173,99
231,54
274,994
277,199
222,182
116,915
-9,672
-119,064
-182,675
-195,396
-175,413
-146,767
-125,143
-112,166
-94,868
-65,548
-29,157
4,114
17,613
6,402
-18,23
-45,321
-62,365
-65,155
-61,796
-57,465
-55,636
-57,418
-59,017
-58,908
-57,715
-55,823
-54,054
-52,619
-50,955
-48,778
-46,109
-42,889
-39,003
-34,371
-28,981
-22,91
-16,336
-9,416
-2,207
5,237
12,86
20,628
28,49
36,391
44,299
52,178
60,007
67,797
75,551
83,263
90,94
98,592
106,263
114,033
121,956
130,068
138,364
146,794
155,311
163,871
172,403
180,824
189,015
196,815
204,096
210,764
216,721
221,876
226,103
229,226
231,113
231,67
230,844
228,642
225,075
220,156
213,954
206,577
198,178
188,957
179,074
168,644
157,793
146,638
135,326
124,049
112,957
102,16
91,756
81,809
72,381
63,538
55,295
47,625
40,476
33,763
27,435
21,478
15,871
10,597
5,629
0,92
-3,552
-7,786
-11,786
-15,557
-19,105
-22,445
-25,569
-28,449
-31,054
-33,346
-35,307
-36,939
-38,244
-39,23
-39,911
-40,302
-40,429
-40,331
-40,04
-39,584
-38,992
-38,292
-37,515
-36,696
-35,869
-35,06
-34,294
-33,594
-32,978
-32,462
-32,058
-31,778
-31,634
-31,639
-31,809
-32,155
-32,688
-33,407
-34,315
-35,413
-36,701
-38,178
-39,841
-41,675
-43,667
-45,81
-48,088
-50,479
-52,948
-55,436
-57,884
-60,243
-62,471
-64,544
-66,443
-68,14
-69,606
-70,812
-71,734
-72,39
-72,8
-72,987
-72,993
-72,82
-72,506
-72,198
-71,969
-71,8
-71,588
-70,982
-69,614
-67,451
-64,485
-60,673
-56,32
-51,695
-47,281
-44,38
-44,133
-46,896
-52,795
-61,32
-71,116
-81,281
-90,276
-94,858
-92,332
-80,913
-60,726
-34,997
-7,04
22,044
55,716
98,592
150,706
206,165
246,798
252,227
213,188
130,335
24,849
-73,315
-144,805
-177,597
-178,322
-164,831
-148,298
-137,943
-133,776
-128,915
-121,654
-111,199
-99,319
-90,744
-86,932
-87,611
-92,095
-98,328
-104,749
-110,786
-115,763
-119,268
-121,298
-121,88
-121,201
-119,689
-117,773
-115,676
-113,562
-111,474
-109,308
-106,966
-104,325
-101,244
-97,616
-93,395
-88,59
-83,235
-77,397
-71,129
-64,489
-57,523
-50,269
-42,755
-34,974
-26,919
-18,587
-9,982
-1,12
7,991
17,368
27,042
37,027
47,325
57,924
68,802
79,937
91,284
102,778
114,343
125,863
137,206
148,231
158,783
168,709
177,868
186,11
193,287
199,294
204,049
207,485
209,559
210,228
209,482
207,335
203,82
199,006
192,974
185,827
177,71
168,771
159,137
148,936
138,271
127,2
115,78
104,08
92,168
80,13
68,04
55,969
43,995
32,194
20,662
9,467
-1,37
-11,836
-21,899
-31,511
-40,583
-48,986
-56,621
-63,417
-69,319
-74,305
-78,356
-81,478
-83,711
-85,135
-85,865
-85,988
-85,554
-84,599
-83,169
-81,329
-79,186
-76,866
-74,466
-72,066
-69,735
-67,527
-65,497
-63,683
-62,081
-60,655
-59,34
-58,091
-56,898
-55,769
-54,715
-53,742
-52,835
-51,973
-51,16
-50,407
-49,718
-49,095
-48,522
-47,975
-47,461
-47,009
-46,659
-46,447
-46,381
-46,451
-46,65
-46,976
-47,436
-48,043
-48,786
-49,644
-50,624
-51,747
-53,066
-54,666
-56,592
-58,867
-61,504
-64,493
-67,845
-71,586
-75,721
-80,243
-85,145
-90,389
-95,965
-101,912
-108,131
-114,41
-120,427
-125,691
-129,72
-132,128
-132,624
-130,988
-127,312
-122,06
-115,91
-109,907
-105,333
-103,243
-104,144
-108,166
-114,615
-121,88
-128,43
-131,977
-129,059
-116,701
-92,832
-57,833
-15,511
30,215
77,64
129,504
189,926
256,753
321,386
367,069
375,155
339,476
262,045
152,002
27,784
-97,399
-210,132
-291,083
-331,244
-326,011
-278,682
-211,027
-143,846
-95,408
-78,443
-88,042
-113,238
-140,037
-156,087
-159,189
-152,678
-143,509
-137,185
-134,471
-133,912
-132,617
-129,145
-124,085
-118,281
-112,646
-107,65
-103,111
-98,888
-94,961
-91,194
-87,488
-83,755
-79,848
-75,649
-71,088
-66,135
-60,783
-55,051
-48,953
-42,469
-35,586
-28,326
-20,722
-12,79
-4,545
4,02
12,93
22,178
31,755
41,672
51,902
62,431
73,248
84,317
95,608
107,078
118,653
130,261
141,83
153,251
164,408
175,165
185,34
194,78
203,341
210,874
217,278
222,463
226,329
228,808
229,846
229,405
227,499
224,152
219,384
213,254
205,855
197,317
187,833
177,56
166,616
155,108
143,117
130,742
118,113
105,344
92,533
79,782
67,182
54,845
42,92
31,506
20,649
10,356
0,578
-8,686
-17,385
-25,452
-32,819
-39,446
-45,319
-50,407
-54,658
-58,069
-60,673
-62,563
-63,89
-64,743
-65,16
-65,154
-64,699
-63,809
-62,537
-60,924
-59,009
-56,851
-54,515
-52,114
-49,8
-47,658
-45,724
-43,977
-42,354
-40,842
-39,468
-38,261
-37,277
-36,563
-36,163
-36,162
-36,643
-37,634
-39,127
-41,055
-43,301
-45,802
-48,531
-51,477
-54,66
-58,065
-61,659
-65,424
-69,322
-73,301
-77,299
-81,205
-84,911
-88,355
-91,499
-94,349
-96,95
-99,319
-101,454
-103,364
-105,045
-106,506
-107,782
-108,897
-109,871
-110,741
-111,544
-112,33
-113,157
-114,059
-115,072
-116,215
-117,477
-118,854
-120,333
-121,844
-123,313
-124,642
-125,662
-126,218
-126,183
-125,421
-123,98
-122,112
-120,05
-118,034
-116,254
-114,617
-112,981
-111,327
-108,786
-103,837
-95,451
-82,429
-65,277
-47,22
-28,979
-9,833
11,483
39,465
70,939
95,518
103,727
84,284
37,597
-23,163
-85,765
-136,889
-171,19
-193,45
-206,327
-212,414
-213,187
-206,881
-194,791
-180,072
-164,923
-151,925
-142,642
-137,14
-135,329
-136,66
-139,781
-143,31
-146,313
-148,068
-148,241
-146,839
-143,883
-139,573
-134,373
-128,792
-123,188
-117,746
-112,493
-107,37
-102,333
-97,331
-92,259
-86,964
-81,345
-75,38
-69,085
-62,505
-55,675
-48,598
-41,29
-33,781
-26,069
-18,136
-9,961
-1,512
7,226
16,255
25,584
35,238
45,231
55,573
66,266
77,268
88,526
99,985
111,582
123,242
134,859
146,284
157,345
167,901
177,816
186,958
195,19
202,325
208,207
212,724
215,789
217,375
217,482
216,114
213,298
209,113
203,666
197,115
189,647
181,408
172,535
163,17
153,458
143,585
133,722
123,996
114,507
105,329
96,516
88,126
80,2
72,729
65,684
59,014
52,642
46,533
40,664
35,007
29,543
24,235
19,05
13,985
9,051
4,257
-0,386
-4,871
-9,193
-13,317
-17,207
-20,824
-24,124
-27,084
-29,694
-31,945
-33,839
-35,38
-36,577
-37,453
-38,039
-38,361
-38,443
-38,311
-37,989
-37,511
-36,911
-36,222
-35,472
-34,69
-33,897
-33,116
-32,368
-31,666
-31,025
-30,456
-29,97
-29,583
-29,314
-29,178
-29,19
-29,357
-29,688
-30,191
-30,876
-31,751
-32,813
-34,054
-35,461
-37,018
-38,713
-40,534
-42,457
-44,443
-46,451
-48,429
-50,34
-52,171
-53,891
-55,467
-56,851
-57,974
-58,818
-59,417
-59,82
-60,085
-60,238
-60,237
-60,1
-59,936
-59,795
-59,669
-59,408
-58,667
-57,28
-55,349
-53,014
-50,397
-47,617
-44,823
-42,488
-41,517
-42,546
-45,68
-50,629
-56,855
-63,764
-70,464
-75,701
-77,846
-75,001
-65,849
-50,266
-28,224
-1,576
25,141
50,102
72,518
93,713
119,68
149,047
173,14
180,779
159,521
108,144
38,403
-31,344
-84,51
-112,827
-116,85
-106,603
-90,876
-75,007
-63,319
-53,426
-43,53
-34,266
-25,378
-19,221
-17,393
-19,161
-23,578
-28,977
-34,085
-38,546
-42,022
-44,282
-45,263
-44,998
-43,856
-42,32
-40,616
-38,794
-36,803
-34,541
-31,967
-29,064
-25,741
-21,889
-17,459
-12,463
-6,974
-1,091
5,123
11,628
18,391
25,374
32,542
39,849
47,25
54,724
62,267
69,882
77,583
85,388
93,315
101,408
109,735
118,351
127,289
136,559
146,135
155,981
166,055
176,305
186,674
197,071
207,383
217,485
227,251
236,555
245,271
253,24
260,271
266,202
270,898
274,259
276,226
276,743
275,773
273,311
269,385
264,06
257,425
249,569
240,581
230,552
219,598
207,879
195,591
182,914
170,02
157,067
144,207
131,618
119,459
107,844
96,852
86,53
76,928
68,109
60,151
53,112
47,021
41,869
37,619
34,243
31,693
29,907
28,792
28,212
28,054
28,241
28,727
29,474
30,434
31,529
32,672
33,799
34,858
35,815
36,646
37,313
37,806
38,137
38,351
38,522
38,702
38,907
39,138
39,386
39,651
39,948
40,288
40,662
41,06
41,473
41,897
42,334
42,771
43,171
43,479
43,63
43,571
43,27
42,715
41,894
40,805
39,46
37,88
36,106
34,186
32,148
30,005
27,768
25,443
23,057
20,654
18,279
15,981
13,798
11,751
9,855
8,131
6,57
5,126
3,72
2,23
0,555
-1,335
-3,417
-5,679
-8,146
-10,812
-13,632
-16,427
-18,835
-20,642
-21,837
-22,446
-22,472
-21,944
-20,86
-19,531
-18,895
-19,672
-22,062
-25,957
-30,818
-35,914
-40,684
-44,178
-43,992
-37,63
-23,75
-1,458
27,459
58,852
91,795
125,771
160,633
200,136
239,42
268,721
280,126
260,28
209,189
137,637
54,859
-19,982
-77,186
-116,329
-133,764
-137,551
-133,448
-122,806
-112,214
-101,007
-88,492
-77,236
-66,779
-59,07
-56,082
-56,972
-60,862
-66,364
-71,703
-76,022
-78,987
-80,287
-79,908
-78,124
-75,297
-71,903
-68,481
-65,305
-62,408
-59,811
-57,445
-55,199
-52,997
-50,685
-48,063
-45,045
-41,61
-37,761
-33,547
-28,995
-24,102
-18,896
-13,404
-7,63
-1,582
4,749
11,402
18,411
25,829
33,728
42,143
51,099
60,606
70,645
81,211
92,3
103,892
115,971
128,488
141,354
154,484
167,772
181,063
194,161
206,795
218,636
229,412
238,9
246,925
253,348
258,016
260,793
261,59
260,352
257,066
251,745
244,379
234,99
223,682
210,638
196,148
180,57
164,204
147,318
130,164
112,979
96,038
79,58
63,774
48,755
34,635
21,541
9,648
-0,906
-10,065
-17,841
-24,332
-29,675
-33,968
-37,314
-39,839
-41,676
-43,004
-43,956
-44,598
-44,98
-45,148
-45,183
-45,212
-45,333
-45,588
-45,994
-46,533
-47,18
-47,934
-48,769
-49,628
-50,442
-51,121
-51,615
-51,92
-52,041
-51,986
-51,748
-51,305
-50,657
-49,831
-48,853
-47,75
-46,542
-45,238
-43,872
-42,496
-41,172
-39,967
-38,927
-38,081
-37,455
-37,066
-36,922
-37,022
-37,334
-37,821
-38,451
-39,198
-40,056
-41,025
-42,096
-43,258
-44,491
-45,775
-47,095
-48,439
-49,778
-51,093
-52,385
-53,687
-55,08
-56,641
-58,427
-60,471
-62,774
-65,326
-68,102
-71,07
-74,201
-77,449
-80,793
-84,305
-87,981
-91,753
-95,504
-98,861
-101,303
-102,497
-102,108
-99,734
-95,537
-89,814
-82,873
-76,052
-71,087
-69,123
-71,115
-76,288
-81,351
-83,63
-81,993
-78,612
-77,84
-82,638
-91,515
-92,096
-70,681
-14,946
83,385
208,624
337,835
444,181
492,292
472,555
387,66
246,34
82,149
-79,739
-218,678
-309,659
-349,953
-342,969
-297,301
-234,151
-170,043
-118,577
-87,726
-77,822
-84,109
-96,745
-109,184
-116,55
-117,728
-117,844
-119,516
-123,834
-130,459
-135,959
-138,436
-137,782
-134,755
-130,814
-126,835
-123,083
-119,572
-116,257
-113,248
-110,593
-108,045
-105,372
-102,365
-98,819
-94,758
-90,244
-85,275
-79,886
-74,117
-67,97
-61,485
-54,734
-47,734
-40,486
-32,993
-25,226
-17,173
-8,847
-0,24
8,672
17,901
27,466
37,37
47,584
58,084
68,83
79,762
90,826
101,944
112,994
123,845
134,344
144,302
153,55
161,913
169,193
175,239
179,926
183,145
184,838
184,956
183,473
180,408
175,802
169,711
162,247
153,537
143,741
133,077
121,743
109,933
97,862
85,699
73,594
61,691
50,095
38,893
28,162
17,95
8,287
-0,795
-9,297
-17,238
-24,654
-31,622
-38,203
-44,44
-50,383
-56,061
-61,491
-66,69
-71,659
-76,377
-80,835
-85,016
-88,902
-92,486
-95,757
-98,692
-101,268
-103,454
-105,228
-106,583
-107,518
-108,04
-108,159
-107,892
-107,268
-106,329
-105,115
-103,664
-102,015
-100,203
-98,267
-96,248
-94,184
-92,112
-90,062
-88,064
-86,145
-84,338
-82,68
-81,2
-79,916
-78,841
-77,987
-77,361
-76,965
-76,784
-76,786
-76,935
-77,206
-77,585
-78,07
-78,656
-79,33
-80,082
-80,894
-81,761
-82,687
-83,668
-84,69
-85,745
-86,848
-88,043
-89,428
-91,095
-93,108
-95,507
-98,305
-101,505
-105,102
-109,065
-113,34
-117,839
-122,479
-127,201
-131,96
-136,721
-141,412
-145,866
-149,832
-153,054
-155,27
-156,259
-155,87
-153,912
-150,296
-145,229
-139,04
-132,173
-125,092
-117,938
-110,703
-103,581
-96,242
-87,576
-76,328
-61,031
-41,984
-22,067
-3,467
13,884
34,178
63,979
104,828
150,059
184,227
189,872
157,079
86,525
-8,303
-108,546
-197,097
-260,048
-293,392
-299,454
-283,503
-253,594
-213,603
-167,092
-120,201
-81,041
-60,681
-64,355
-87,737
-118,888
-143,441
-153,884
-151,67
-144,23
-138,261
-135,895
-135,509
-133,802
-129,827
-124,583
-119,159
-114,386
-110,148
-105,945
-101,721
-97,601
-93,368
-88,722
-83,452
-77,438
-70,83
-63,837
-56,536
-48,935
-41,077
-32,998
-24,723
-16,3
-7,727
1,009
9,896
18,937
28,107
37,351
46,633
55,938
65,285
74,74
84,357
94,163
104,154
114,288
124,514
134,784
145,022
155,137
165,005
174,465
183,393
191,7
199,293
206,087
211,958
216,731
220,274
222,493
223,328
222,777
220,842
217,526
212,888
207,028
200,086
192,253
183,681
174,478
164,765
154,653
144,285
133,843
123,473
113,282
103,362
93,776
84,586
75,861
67,62
59,843
52,487
45,478
38,776
32,375
26,263
20,434
14,869
9,533
4,412
-0,481
-5,142
-9,563
-13,741
-17,682
-21,371
-24,769
-27,841
-30,544
-32,85
-34,758
-36,264
-37,37
-38,085
-38,418
-38,393
-38,043
-37,399
-36,489
-35,339
-33,973
-32,424
-30,728
-28,922
-27,043
-25,123
-23,191
-21,275
-19,402
-17,596
-15,878
-14,264
-12,769
-11,405
-10,19
-9,142
-8,277
-7,613
-7,163
-6,936
-6,939
-7,177
-7,65
-8,35
-9,261
-10,365
-11,637
-13,063
-14,628
-16,315
-18,099
-19,94
-21,801
-23,651
-25,46
-27,201
-28,854
-30,398
-31,823
-33,15
-34,41
-35,634
-36,857
-38,077
-39,28
-40,464
-41,627
-42,787
-43,988
-45,264
-46,632
-48,098
-49,615
-51,091
-52,466
-53,634
-54,394
-54,547
-53,928
-52,562
-50,784
-49,043
-47,616
-46,501
-45,719
-45,333
-45,14
-44,358
-41,589
-35,097
-24,908
-13,44
-2,343
8,401
23,107
48,681
86,037
127,842
158,342
160,857
129,22
70,632
3,125
-55,347
-95,291
-116,552
-125,818
-128,727
-127,137
-121,006
-109,279
-92,899
-74,818
-57,673
-43,807
-34,593
-30,169
-30,146
-33,607
-39,195
-45,532
-51,64
-56,812
-60,617
-62,948
-63,834
-63,483
-62,29
-60,658
-58,793
-56,749
-54,488
-51,903
-48,928
-45,508
-41,568
-37,055
-31,967
-26,362
-20,319
-13,923
-7,236
-0,296
6,856
14,171
21,605
29,108
36,648
44,213
51,801
59,417
67,096
74,897
82,891
91,178
99,827
108,86
118,296
128,131
138,356
148,966
159,929
171,19
182,689
194,35
206,077
217,752
229,19
240,154
250,405
259,686
267,791
274,571
279,871
283,566
285,563
285,787
284,21
280,84
275,668
268,68
259,915
249,463
237,509
224,324
210,166
195,309
180,007
164,488
149,011
133,807
119,052
104,886
91,417
78,742
66,997
56,348
46,897
38,693
31,706
25,836
21,004
17,116
14,056
11,692
9,856
8,406
7,26
6,376
5,716
5,235
4,846
4,439
3,947
3,336
2,6
1,76
0,815
-0,221
-1,307
-2,373
-3,329
-4,114
-4,708
-5,123
-5,368
-5,444
-5,339
-5,036
-4,548
-3,898
-3,109
-2,204
-1,199
-0,118
0,998
2,087
3,091
3,965
4,684
5,236
5,6
5,75
5,66
5,308
4,689
3,811
2,676
1,29
-0,327
-2,15
-4,141
-6,24
-8,405
-10,612
-12,843
-15,092
-17,339
-19,537
-21,637
-23,594
-25,375
-26,968
-28,36
-29,529
-30,478
-31,239
-31,88
-32,516
-33,246
-34,107
-35,084
-36,146
-37,317
-38,628
-40,058
-41,495
-42,629
-43,119
-42,87
-41,899
-40,185
-37,836
-34,946
-31,712
-29,043
-28,052
-29,26
-32,811
-38,356
-44,952
-51,939
-58,271
-61,324
-58,127
-46,424
-26,302
-0,765
27,445
57,727
93,984
141,355
198,502
257,637
303,171
317,669
293,493
231,677
143,01
45,23
-45,287
-113,058
-148,506
-150,762
-126,687
-91,612
-59,373
-37,827
-28,198
-23,825
-19,749
-15,327
-11,723
-12,168
-17,676
-26,195
-35,562
-44,196
-51,226
-56,587
-60,336
-62,379
-62,928
-62,547
-61,795
-60,918
-59,951
-58,783
-57,253
-55,341
-53,019
-50,187
-46,754
-42,678
-37,981
-32,75
-27,081
-21,03
-14,639
-7,948
-0,99
6,171
13,487
20,938
28,512
36,212
44,07
52,111
60,375
68,922
77,787
86,992
96,554
106,459
116,69
127,21
137,95
148,835
159,78
170,67
181,382
191,77
201,648
210,849
219,216
226,583
232,824
237,82
241,462
243,667
244,373
243,543
241,183
237,317
231,977
225,236
217,195
207,996
197,82
186,819
175,107
162,787
149,953
136,725
123,234
109,602
95,944
82,366
68,977
55,898
43,242
31,083
19,463
8,372
-2,206
-12,246
-21,682
-30,418
-38,38
-45,537
-51,873
-57,379
-62,058
-65,93
-69,061
-71,566
-73,54
-75,047
-76,124
-76,771
-77,007
-76,884
-76,478
-75,888
-75,198
-74,463
-73,736
-73,068
-72,49
-72,014
-71,612
-71,208
-70,754
-70,232
-69,639
-69,007
-68,351
-67,675
-66,982
-66,274
-65,547
-64,815
-64,081
-63,347
-62,634
-61,968
-61,391
-60,975
-60,769
-60,803
-61,093
-61,628
-62,384
-63,353
-64,512
-65,837
-67,31
-68,906
-70,609
-72,42
-74,321
-76,298
-78,335
-80,396
-82,455
-84,517
-86,586
-88,701
-90,919
-93,272
-95,794
-98,511
-101,436
-104,594
-107,994
-111,627
-115,489
-119,558
-123,836
-128,372
-133,129
-137,953
-142,578
-146,552
-149,408
-150,781
-150,316
-147,741
-143,034
-136,485
-128,866
-121,447
-115,57
-112,428
-112,853
-117,052
-124,726
-134,971
-145,744
-154,021
-156,273
-148,514
-128,847
-98,798
-60,278
-15,94
34,016
95,737
172,14
259,944
349,587
417,477
439,753
403,74
304,193
156,272
-10,318
-169,229
-292,068
-361,161
-378,29
-348,672
-286,874
-214,651
-146,134
-96,274
-74,718
-77,359
-96,458
-119,262
-134,012
-138,282
-134,66
-129,378
-127,145
-128,39
-131,554
-133,749
-133,723
-132,042
-129,376
-126,645
-124,398
-122,482
-120,798
-119,286
-117,674
-115,785
-113,512
-110,689
-107,233
-103,156
-98,46
-93,164
-87,339
-81,005
-74,176
-66,905
-59,213
-51,113
-42,626
-33,747
-24,464
-14,786
-4,708
5,792
16,721
28,093
39,909
52,137
64,754
77,716
90,954
104,404
117,974
131,529
144,925
157,999
170,543
182,372
193,289
203,075
211,563
218,615
224,109
227,975
230,159
230,626
229,392
226,497
221,998
216,007
208,651
200,085
190,528
180,178
169,232
157,907
146,372
134,778
123,269
111,954
100,923
90,258
80,006
70,198
60,864
52,006
43,608
35,638
28,019
20,693
13,624
6,772
0,127
-6,311
-12,558
-18,613
-24,462
-30,108
-35,54
-40,747
-45,739
-50,504
-55,015
-59,23
-63,077
-66,495
-69,454
-71,937
-73,959
-75,538
-76,673
-77,372
-77,65
-77,496
-76,907
-75,871
-74,343
-72,31
-69,798
-66,858
-63,59
-60,12
-56,535
-52,908
-49,298
-45,741
-42,301
-39,039
-35,999
-33,251
-30,862
-28,905
-27,505
-26,758
-26,708
-27,37
-28,695
-30,576
-32,944
-35,729
-38,854
-42,266
-45,888
-49,628
-53,43
-57,24
-61,005
-64,676
-68,158
-71,347
-74,177
-76,593
-78,592
-80,225
-81,531
-82,554
-83,362
-84,032
-84,651
-85,328
-86,157
-87,178
-88,392
-89,79
-91,344
-93,032
-94,943
-97,158
-99,593
-102,181
-104,753
-107,04
-109,02
-110,644
-111,505
-111,246
-109,788
-107,119
-103,764
-100,479
-97,273
-94,029
-91,003
-88,319
-85,649
-82,201
-76,117
-64,918
-48,716
-29,973
-10,176
9,561
32,414
66,251
112,919
167,859
218,56
244,831
233,62
182,425
99,96
4,126
-86,786
-157,903
-202,106
-217,251
-208,177
-186,187
-159,838
-137,755
-123,238
-112,175
-102,921
-94,177
-86,012
-81,793
-82,259
-86,061
-91,841
-97,469
-101,605
-104,161
-104,976
-103,94
-101,358
-97,611
-93,187
-88,699
-84,444
-80,417
-76,615
-72,978
-69,405
-65,837
-62,125
-58,067
-53,599
-48,727
-43,481
-37,936
-32,114
-26,012
-19,655
-13,075
-6,306
0,624
7,721
15,006
22,482
30,162
38,06
46,205
54,672
63,521
72,782
82,456
92,521
102,96
113,766
124,932
136,423
148,166
160,062
172,019
183,927
195,642
206,975
217,667
227,436
236,057
243,36
249,225
253,55
256,216
257,11
256,166
253,357
248,699
242,221
233,922
223,847
212,112
198,9
184,5
169,214
153,288
136,935
120,35
103,732
87,313
71,327
55,936
41,272
27,452
14,597
2,882
-7,565
-16,696
-24,516
-31,115
-36,595
-41,017
-44,442
-46,958
-48,668
-49,716
-50,26
-50,386
-50,167
-49,684
-49,023
-48,318
-47,681
-47,165
-46,792
-46,552
-46,439
-46,464
-46,635
-46,92
-47,273
-47,632
-47,92
-48,11
-48,188
-48,13
-47,919
-47,524
-46,923
-46,133
-45,185
-44,105
-42,917
-41,634
-40,271
-38,87
-37,476
-36,131
-34,884
-33,769
-32,82
-32,087
-31,604
-31,389
-31,449
-31,767
-32,315
-33,08
-34,042
-35,172
-36,454
-37,864
-39,393
-41,06
-42,868
-44,801
-46,824
-48,863
-50,857
-52,78
-54,614
-56,361
-58,05
-59,686
-61,301
-62,959
-64,662
-66,42
-68,226
-70,011
-71,748
-73,427
-75,005
-76,553
-78,197
-79,914
-81,632
-83,129
-83,922
-83,785
-82,723
-80,611
-77,431
-73,38
-68,663
-64,116
-61,199
-60,656
-62,581
-66,792
-72,403
-78,338
-83,849
-87,137
-85,13
-75,907
-58,555
-32,637
-1,362
31,721
66,395
99,468
130,182
159,31
178,536
182,836
167,943
128,515
73,093
11,101
-49,288
-97,787
-133,91
-158,792
-172,362
-177,005
-172,348
-159,107
-140,321
-118,734
-98,006
-80,897
-68,413
-61,166
-58,97
-60,852
-65,878
-72,704
-79,661
-85,78
-90,517
-93,545
-94,983
-95,05
-93,933
-92,055
-89,911
-87,702
-85,475
-83,141
-80,486
-77,394
-73,805
-69,633
-64,822
-59,356
-53,274
-46,678
-39,702
-32,443
-24,962
-17,274
-9,37
-1,275
6,973
15,321
23,72
32,157
40,629
49,117
57,6
66,063
74,517
83,019
91,652
100,471
109,488
118,67
127,952
137,28
146,592
155,811
164,838
173,537
181,784
189,487
196,579
202,992
208,632
213,368
217,037
219,516
220,735
220,664
219,307
216,675
212,804
207,773
201,708
194,777
187,124
178,856
170,06
160,82
151,247
141,481
131,681
121,974
112,454
103,199
94,268
85,724
77,602
69,898
62,57
55,55
48,795
42,295
36,054
30,078
24,363
18,891
13,641
8,617
3,823
-0,735
-5,055
-9,138
-12,973
-16,532
-19,77
-22,641
-25,112
-27,172
-28,821
-30,064
-30,91
-31,369
-31,463
-31,221
-30,673
-29,845
-28,759
-27,435
-25,897
-24,179
-22,317
-20,352
-18,321
-16,259
-14,199
-12,171
-10,202
-8,318
-6,535
-4,863
-3,313
-1,897
-0,633
0,449
1,324
1,976
2,39
2,561
2,492
2,186
1,662
0,953
0,092
-0,884
-1,953
-3,113
-4,359
-5,682
-7,067
-8,476
-9,879
-11,269
-12,629
-13,95
-15,24
-16,497
-17,754
-19,073
-20,499
-22,084
-23,864
-25,841
-28,028
-30,438
-33,052
-35,895
-39,026
-42,374
-45,805
-49,097
-51,873
-53,806
-54,669
-54,242
-52,286
-48,85
-44,304
-39,269
-34,801
-31,968
-31,425
-33,402
-37,904
-44,266
-51,202
-57,39
-60,439
-57,303
-45,681
-23,731
7,816
44,783
83,338
120,535
158,654
205,372
263,874
332,47
395,489
425,44
402,658
315,888
177,358
21,729
-117,559
-210,097
-244,149
-229,389
-181,926
-121,96
-66,694
-27,085
-7,988
-10,58
-29,646
-53,681
-74,887
-86,48
-87,21
-83,787
-79,829
-77,77
-78,344
-78,19
-75,914
-71,904
-66,458
-60,752
-55,582
-50,744
-46,123
-41,727
-37,405
-33,094
-28,795
-24,431
-19,897
-15,168
-10,194
-4,906
0,68
6,551
12,719
19,197
26,014
33,178
40,662
48,424
56,447
64,738
73,318
82,19
91,332
100,714
110,31
120,123
130,158
140,409
150,861
161,463
172,149
182,861
193,536
204,106
214,482
224,53
234,095
243,056
251,305
258,756
265,33
270,903
275,359
278,605
280,558
281,185
280,475
278,417
275,016
270,302
264,329
257,208
249,095
240,102
230,32
219,811
208,607
196,798
184,494
171,802
158,831
145,67
132,404
119,141
106,005
93,113
80,556
68,373
56,555
45,129
34,161
23,751
14,035
5,105
-2,993
-10,222
-16,56
-21,984
-26,5
-30,155
-33,048
-35,294
-36,98
-38,152
-38,823
-39,027
-38,83
-38,332
-37,656
-36,89
-36,102
-35,352
-34,696
-34,186
-33,847
-33,664
-33,579
-33,518
-33,436
-33,319
-33,175
-33,015
-32,836
-32,628
-32,378
-32,091
-31,777
-31,437
-31,075
-30,687
-30,289
-29,924
-29,652
-29,539
-29,631
-29,958
-30,53
-31,342
-32,382
-33,62
-35,024
-36,553
-38,168
-39,843
-41,559
-43,31
-45,083
-46,847
-48,568
-50,209
-51,748
-53,173
-54,495
-55,74
-56,951
-58,2
-59,554
-61,068
-62,797
-64,782
-67,064
-69,662
-72,598
-75,88
-79,516
-83,569
-88,013
-92,696
-97,341
-101,506
-104,663
-106,362
-106,335
-104,303
-100,264
-94,651
-88,117
-81,864
-77,474
-76,141
-78,301
-83,932
-92,314
-101,949
-110,995
-116,401
-113,928
-99,537
-72,558
-35,671
8,254
55,234
108,024
175,853
258,728
352,165
440,497
491,317
486,033
416,639
285,911
125,642
-34,75
-170,218
-254,896
-289,467
-283,365
-250,045
-213,306
-183,527
-162,96
-150,723
-138,633
-124,523
-111,314
-101,793
-100,148
-106,6
-117,586
-130,19
-141,802
-150,899
-157,278
-160,469
-159,889
-155,942
-149,817
-142,659
-135,48
-128,789
-122,55
-116,851
-111,929
-107,743
-103,983
-100,327
-96,44
-92,13
-87,421
-82,31
-76,739
-70,685
-64,141
-57,11
-49,617
-41,676
-33,278
-24,423
-15,114
-5,349
4,879
15,587
26,777
38,404
50,388
62,635
75,061
87,569
100,052
112,381
124,398
135,966
146,981
157,352
166,979
175,736
183,474
190,03
195,285
199,179
201,688
202,816
202,574
201,011
198,199
194,249
189,299
183,442
176,753
169,298
161,159
152,464
143,353
133,96
124,386
114,697
104,938
95,151
85,36
75,534
65,65
55,678
45,599
35,478
25,375
15,341
5,42
-4,377
-14,035
-23,512
-32,758
-41,722
-50,346
-58,574
-66,325
-73,464
-79,896
-85,561
-90,439
-94,597
-98,085
-100,926
-103,152
-104,784
-105,853
-106,416
-106,522
-106,197
-105,481
-104,426
-103,108
-101,651
-100,138
-98,611
-97,082
-95,512
-93,886
-92,218
-90,516
-88,789
-87,044
-85,282
-83,522
-81,807
-80,162
-78,601
-77,116
-75,678
-74,282
-72,951
-71,727
-70,666
-69,803
-69,152
-68,723
-68,518
-68,532
-68,752
-69,145
-69,669
-70,3
-71,027
-71,861
-72,824
-73,915
-75,103
-76,343
-77,577
-78,77
-79,903
-80,967
-81,985
-82,997
-84,051
-85,222
-86,555
-88,049
-89,695
-91,462
-93,297
-95,177
-97,077
-98,961
-100,886
-102,954
-105,196
-107,526
-109,612
-111,027
-111,538
-111,093
-109,626
-106,963
-102,948
-97,793
-92,472
-88,2
-85,675
-84,916
-85,478
-87,174
-89,878
-92,658
-93,238
-88,394
-77,033
-61,35
-44,026
-27,383
-7,393
26,729
79,224
148,201
219,712
264,581
264,713
212,741
111,887
-12,343
-138,72
-251,759
-331,113
-368,742
-359,728
-301,725
-211,993
-115,96
-38,876
-1,243
-5,185
-36,284
-74,332
-103,017
-115,598
-115,734
-113,315
-114,471
-120,338
-128,892
-135,251
-137,19
-135,646
-131,967
-127,671
-123,552
-119,404
-115,133
-111,026
-107,13
-103,249
-99,064
-94,244
-88,668
-82,439
-75,696
-68,491
-60,877
-52,926
-44,735
-36,417
-28,028
-19,585
-11,084
-2,525
6,068
14,676
23,292
31,937
40,649
49,489
58,522
67,792
77,335
87,158
97,246
107,59
118,151
128,871
139,696
150,555
161,362
172,029
182,436
192,409
201,776
210,343
217,895
224,268
229,312
232,912
234,996
235,501
234,398
231,699
227,417
221,57
214,198
205,341
195,109
183,691
171,273
158,082
144,367
130,348
116,262
102,314
88,659
75,434
62,744
50,66
39,271
28,675
18,962
10,236
2,533
-4,18
-9,935
-14,802
-18,879
-22,268
-25,112
-27,536
-29,615
-31,402
-32,927
-34,203
-35,269
-36,176
-36,975
-37,74
-38,511
-39,3
-40,124
-40,975
-41,826
-42,635
-43,327
-43,833
-44,125
-44,196
-44,059
-43,737
-43,238
-42,57
-41,752
-40,786
-39,685
-38,466
-37,135
-35,71
-34,224
-32,716
-31,245
-29,867
-28,615
-27,513
-26,576
-25,819
-25,266
-24,935
-24,834
-24,962
-25,311
-25,873
-26,655
-27,647
-28,828
-30,166
-31,617
-33,155
-34,779
-36,481
-38,249
-40,046
-41,814
-43,505
-45,084
-46,524
-47,832
-49,011
-50,04
-50,946
-51,775
-52,572
-53,436
-54,403
-55,426
-56,485
-57,555
-58,621
-59,793
-61,166
-62,665
-64,236
-65,733
-66,958
-67,969
-68,747
-68,976
-68,389
-66,933
-64,747
-62,478
-60,799
-59,664
-58,99
-58,775
-58,868
-59,131
-58,519
-54,781
-46,196
-31,864
-12,555
8,535
30,545
54,073
80,575
114,366
152,571
186,653
205,795
194,691
148,885
74,496
-14,805
-95,907
-153,666
-181,188
-180,565
-165,792
-147,076
-131,641
-122,213
-113,478
-103,225
-91,31
-78,54
-68,868
-64,097
-63,691
-66,72
-71,395
-76,082
-80,059
-82,914
-84,308
-84,248
-82,976
-80,764
-78,014
-75,204
-72,541
-70,053
-67,731
-65,4
-62,865
-60,018
-56,716
-52,844
-48,39
-43,365
-37,817
-31,84
-25,506
-18,853
-11,911
-4,691
2,792
10,502
18,394
26,406
34,48
42,588
50,709
58,841
67
75,211
83,519
91,996
100,694
109,645
118,846
128,272
137,892
147,665
157,549
167,51
177,475
187,343
197,007
206,327
215,156
223,347
230,716
237,057
242,202
246,021
248,429
249,385
248,847
246,794
243,226
238,147
231,608
223,691
214,478
204,108
192,747
180,57
167,813
154,743
141,576
128,497
115,649
103,127
91,046
79,509
68,59
58,372
48,908
40,241
32,437
25,508
19,422
14,131
9,523
5,45
1,812
-1,467
-4,448
-7,146
-9,596
-11,831
-13,86
-15,701
-17,373
-18,908
-20,37
-21,805
-23,22
-24,607
-25,921
-27,088
-28,07
-28,842
-29,382
-29,695
-29,789
-29,671
-29,376
-28,943
-28,399
-27,764
-27,035
-26,206
-25,293
-24,319
-23,32
-22,345
-21,423
-20,584
-19,865
-19,299
-18,922
-18,762
-18,825
-19,102
-19,582
-20,248
-21,084
-22,073
-23,186
-24,397
-25,683
-27,033
-28,452
-29,94
-31,488
-33,06
-34,599
-36,054
-37,387
-38,577
-39,624
-40,548
-41,382
-42,171
-42,96
-43,779
-44,666
-45,624
-46,639
-47,7
-48,742
-49,768
-50,872
-52,062
-53,283
-54,4
-55,032
-54,795
-53,57
-51,19
-47,501
-42,736
-37,127
-31,171
-26,14
-23,104
-22,458
-24,455
-28,691
-33,917
-39,28
-43,255
-42,705
-35,121
-18,856
5,975
35,936
67,311
99,174
135,045
179,592
233,775
290,166
328,799
330,708
286,605
201,028
99,769
8,376
-56,631
-88,364
-99,486
-101,295
-99,459
-98,944
-94,441
-83,788
-69,799
-53,174
-38,285
-28,386
-23,27
-23,072
-26,842
-32,574
-38,872
-44,802
-49,477
-52,508
-53,878
-53,577
-51,826
-49,162
-46,163
-43,17
-40,372
-37,78
-35,249
-32,7
-30,039
-27,086
-23,672
-19,691
-15,112
-9,997
-4,448
1,469
7,719
14,278
21,135
28,277
35,679
43,328
51,222
59,354
67,693
76,187
84,783
93,454
102,212
111,113
120,199
129,479
138,929
148,499
158,139
167,78
177,336
186,694
195,702
204,224
212,158
219,425
225,952
231,644
236,372
239,974
242,326
243,351
243,012
241,305
238,23
233,818
228,143
221,329
213,547
204,944
195,633
185,704
175,246
164,372
153,23
141,985
130,772
119,695
108,837
98,271
88,066
78,27
68,886
59,873
51,167
42,732
34,567
26,693
19,134
11,888
4,934
-1,751
-8,183
-14,366
-20,31
-26,036
-31,56
-36,873
-41,939
-46,681
-51,016
-54,896
-58,303
-61,246
-63,74
-65,779
-67,354
-68,463
-69,095
-69,242
-68,884
-67,967
-66,465
-64,397
-61,815
-58,828
-55,566
-52,123
-48,571
-44,969
-41,359
-37,809
-34,386
-31,132
-28,113
-25,4
-23,084
-21,31
-20,192
-19,772
-20,054
-20,973
-22,421
-24,328
-26,631
-29,249
-32,124
-35,183
-38,351
-41,602
-44,904
-48,198
-51,402
-54,371
-56,984
-59,192
-61,001
-62,462
-63,656
-64,639
-65,454
-66,189
-66,932
-67,77
-68,795
-70,043
-71,527
-73,279
-75,379
-77,977
-81,122
-84,71
-88,47
-91,994
-94,886
-96,853
-97,684
-97,14
-95,26
-92,418
-89,215
-86,66
-85,859
-87,64
-92,361
-99,93
-109,457
-119,435
-128,36
-133,944
-133,23
-123,431
-102,075
-69,585
-29,992
13,077
56,62
102,725
158,914
225,581
297,704
360,805
389,235
368,99
295,998
178,432
44,577
-80,357
-175,465
-226,613
-239,134
-224,647
-198,279
-174,8
-158,812
-149,46
-142,514
-134,367
-125,566
-118,503
-116,194
-119,5
-126,842
-135,959
-144,45
-150,972
-155,256
-157,197
-156,862
-154,594
-150,796
-146,096
-141,246
-136,623
-132,337
-128,396
-124,687
-121,127
-117,688
-114,28
-110,762
-107,04
-103,046
-98,737
-94,134
-89,24
-84,033
-78,504
-72,633
-66,415
-59,852
-52,943
-45,667
-37,993
-29,89
-21,315
-12,235
-2,635
7,479
18,071
29,093
40,484
52,163
64,048
76,052
88,063
99,951
111,573
122,764
133,359
143,207
152,133
159,948
166,484
171,603
175,21
177,267
177,767
176,725
174,177
170,183
164,848
158,316
150,75
142,321
133,176
123,444
113,285
102,887
92,436
82,094
71,977
62,146
52,644
43,513
34,779
26,441
18,449
10,72
3,186
-4,193
-11,397
-18,395
-25,186
-31,794
-38,253
-44,577
-50,746
-56,709
-62,422
-67,864
-72,998
-77,769
-82,073
-85,795
-88,863
-91,269
-93,071
-94,333
-95,092
-95,372
-95,194
-94,6
-93,651
-92,407
-90,907
-89,175
-87,256
-85,215
-83,152
-81,176
-79,353
-77,7
-76,195
-74,815
-73,56
-72,432
-71,434
-70,551
-69,772
-69,1
-68,559
-68,181
-67,983
-67,966
-68,124
-68,438
-68,903
-69,526
-70,322
-71,293
-72,438
-73,737
-75,167
-76,72
-78,383
-80,132
-81,952
-83,797
-85,624
-87,404
-89,085
-90,621
-91,978
-93,103
-93,97
-94,604
-95,036
-95,341
-95,627
-95,925
-96,285
-96,801
-97,44
-98,137
-98,746
-98,959
-98,566
-97,518
-95,765
-93,313
-90,399
-87,325
-84,683
-83,361
-83,977
-86,967
-92,484
-100,216
-109,495
-119,334
-128,119
-133,927
-135,135
-129,859
-116,638
-94,984
-64,828
-28,332
10,012
46,533
78,9
109,037
142,115
179,487
217,018
240,245
231,733
183,096
95,446
-11,011
-108,673
-179,457
-211,357
-210,636
-194,919
-174,931
-160,323
-152,658
-145,034
-135,775
-124,629
-112,46
-103,589
-99,638
-99,79
-103,109
-107,769
-112,036
-115,222
-116,981
-116,971
-115,223
-112,016
-107,618
-102,489
-97,241
-92,159
-87,327
-82,799
-78,472
-74,249
-70,09
-65,863
-61,386
-56,551
-51,324
-45,725
-39,834
-33,704
-27,335
-20,723
-13,865
-6,779
0,499
7,959
15,618
23,503
31,617
39,946
48,456
57,125
65,99
75,085
84,435
94,051
103,895
113,916
124,072
134,316
144,576
154,753
164,702
174,255
183,284
191,67
199,298
206,052
211,761
216,279
219,5
221,346
221,785
220,815
218,432
214,657
209,564
203,259
195,898
187,674
178,732
169,211
159,251
148,993
138,615
128,281
118,114
108,213
98,653
89,495
80,801
72,619
64,948
57,767
51,025
44,648
38,597
32,846
27,368
22,141
17,129
12,302
7,653
3,193
-1,071
-5,132
-8,987
-12,637
-16,059
-19,222
-22,096
-24,641
-26,839
-28,686
-30,177
-31,313
-32,102
-32,552
-32,685
-32,531
-32,116
-31,465
-30,602
-29,553
-28,351
-27,035
-25,639
-24,199
-22,743
-21,298
-19,888
-18,534
-17,253
-16,057
-14,962
-13,985
-13,153
-12,487
-12,003
-11,71
-11,61
-11,693
-11,938
-12,321
-12,809
-13,374
-13,991
-14,649
-15,355
-16,117
-16,945
-17,831
-18,741
-19,647
-20,525
-21,36
-22,146
-22,902
-23,666
-24,502
-25,5
-26,736
-28,27
-30,126
-32,279
-34,682
-37,267
-39,986
-42,835
-45,821
-48,915
-52,09
-55,323
-58,513
-61,538
-64,247
-66,348
-67,573
-67,823
-67,016
-65,168
-62,527
-59,317
-55,75
-52,219
-48,9
-45,481
-41,675
-37,15
-30,898
-21,923
-9,648
6,977
26,957
46,525
64,695
81,58
98,57
121,351
147,135
165,674
167,828
142,285
90,208
25,971
-37,887
-88,425
-120,849
-140,495
-150,527
-153,7
-151,711
-143,289
-129,685
-113,807
-97,862
-84,31
-74,675
-69,225
-67,816
-69,753
-73,821
-78,584
-83,026
-86,474
-88,474
-88,93
-87,872
-85,459
-82,109
-78,382
-74,629
-71,011
-67,582
-64,226
-60,845
-57,366
-53,617
-49,444
-44,767
-39,559
-33,87
-27,803
-21,435
-14,821
-8,004
-0,985
6,239
13,661
21,278
29,073
37,034
45,146
53,371
61,664
69,992
78,346
86,755
95,289
104,001
112,909
122,004
131,235
140,552
149,892
159,169
168,282
177,093
185,475
193,336
200,606
207,221
213,092
218,094
222,069
224,894
226,494
226,83
225,899
223,701
220,266
215,666
210,026
203,513
196,272
188,413
180,024
171,189
162,016
152,641
143,222
133,879
124,707
115,782
107,165
98,923
91,092
83,674
76,626
69,88
63,392
57,149
51,154
45,413
39,922
34,659
29,609
24,774
20,162
15,777
11,622
7,691
3,992
0,55
-2,594
-5,396
-7,831
-9,892
-11,581
-12,903
-13,866
-14,481
-14,767
-14,754
-14,465
-13,924
-13,151
-12,17
-11,01
-9,708
-8,305
-6,84
-5,347
-3,857
-2,4
-1,002
0,319
1,546
2,667
3,664
4,509
5,176
5,644
5,899
5,933
5,745
5,343
4,744
3,98
3,089
2,099
1,03
-0,113
-1,328
-2,613
-3,958
-5,34
-6,736
-8,129
-9,502
-10,842
-12,151
-13,444
-14,759
-16,168
-17,728
-19,486
-21,485
-23,742
-26,28
-29,103
-32,167
-35,446
-38,951
-42,646
-46,449
-50,213
-53,579
-56,158
-57,771
-58,26
-57,488
-55,554
-52,563
-48,796
-45,23
-42,978
-42,599
-44,302
-47,72
-51,901
-56,266
-59,868
-60,119
-54,053
-39,321
-16,016
12,226
41,831
72,512
109,445
159,37
222,409
288,366
337,23
349,898
318,536
249,822
160,655
66,623
-21,153
-97,821
-160,157
-200,252
-212,705
-195,273
-151,819
-95,457
-40,755
-2,069
11,213
-1,105
-31,611
-65,929
-91,497
-102,424
-99,779
-91,637
-84,533
-80,488
-78,831
-76,541
-72,219
-66,781
-61,286
-56,493
-52,436
-48,61
-44,729
-40,798
-36,819
-32,732
-28,426
-23,844
-19,012
-13,959
-8,726
-3,306
2,337
8,199
14,29
20,621
27,162
33,888
40,803
47,909
55,226
62,805
70,666
78,83
87,34
96,198
105,406
114,963
124,831
134,976
145,353
155,892
166,53
177,192
187,758
198,097
208,06
217,451
226,094
233,809
240,386
245,673
249,548
251,905
252,689
251,865
249,415
245,371
239,788
232,737
224,337
214,728
204,072
192,589
180,484
167,957
155,232
142,488
129,877
117,545
105,597
94,116
83,174
72,811
63,044
53,891
45,339
37,362
29,919
22,93
16,33
10,073
4,1
-1,622
-7,114
-12,398
-17,477
-22,335
-26,963
-31,344
-35,454
-39,283
-42,813
-46,021
-48,886
-51,379
-53,48
-55,188
-56,507
-57,445
-58,022
-58,255
-58,171
-57,806
-57,196
-56,373
-55,376
-54,237
-52,993
-51,683
-50,345
-49,012
-47,719
-46,491
-45,352
-44,324
-43,424
-42,677
-42,11
-41,75
-41,614
-41,722
-42,082
-42,693
-43,55
-44,637
-45,928
-47,396
-49,011
-50,74
-52,564
-54,465
-56,43
-58,44
-60,453
-62,431
-64,355
-66,214
-68,021
-69,802
-71,58
-73,399
-75,328
-77,419
-79,737
-82,34
-85,275
-88,594
-92,319
-96,432
-100,962
-105,956
-111,376
-117,111
-122,9
-128,3
-132,955
-136,641
-139,172
-140,36
-140,168
-138,769
-136,636
-134,752
-134,041
-134,793
-137,114
-141,132
-146,353
-152,185
-156,389
-154,11
-142,888
-122,259
-96,176
-74,608
-59,213
-45,414
-22,469
30,155
115,133
219,334
321,178
382,553
383,261
324,815
216,324
86,026
-41,831
-155,733
-243,047
-297,184
-316,317
-299,12
-251,385
-190,754
-135,967
-100,199
-92,907
-107,336
-128,306
-146,569
-153,387
-149,259
-142,983
-138,283
-137,405
-140,207
-142,504
-142,662
-140,939
-137,519
-133,441
-129,423
-125,497
-121,742
-118,254
-114,967
-111,743
-108,502
-105,172
-101,608
-97,681
-93,329
-88,498
-83,209
-77,546
-71,532
-65,164
-58,453
-51,408
-44,034
-36,345
-28,326
-19,928
-11,122
-1,884
7,806
17,927
28,468
39,421
50,755
62,444
74,446
86,688
99,101
111,609
124,092
136,419
148,439
159,945
170,753
180,677
189,511
197,104
203,332
208,087
211,308
212,952
212,994
211,459
208,387
203,83
197,891
190,692
182,383
173,178
163,274
152,861
142,154
131,323
120,516
109,875
99,501
89,475
79,871
70,731
62,082
53,953
46,347
39,247
32,625
26,408
20,54
14,98
9,68
4,613
-0,238
-4,892
-9,345
-13,577
-17,576
-21,321
-24,788
-27,968
-30,839
-33,379
-35,562
-37,358
-38,743
-39,715
-40,272
-40,424
-40,191
-39,593
-38,658
-37,427
-35,935
-34,22
-32,323
-30,276
-28,118
-25,888
-23,627
-21,375
-19,172
-17,049
-15,033
-13,148
-11,415
-9,854
-8,482
-7,316
-6,366
-5,652
-5,187
-4,989
-5,082
-5,479
-6,181
-7,185
-8,48
-10,048
-11,873
-13,926
-16,163
-18,558
-21,079
-23,701
-26,412
-29,172
-31,938
-34,671
-37,307
-39,791
-42,08
-44,114
-45,861
-47,338
-48,575
-49,644
-50,643
-51,6
-52,561
-53,605
-54,698
-55,775
-56,67
-57,075
-56,794
-55,762
-53,935
-51,329
-48,147
-44,706
-41,624
-39,753
-39,698
-41,943
-46,639
-53,492
-61,901
-70,834
-78,611
-83,381
-83,631
-77,334
-62,912
-40,209
-9,136
28,2
66,311
102,689
136,629
168,306
204,679
245,823
281,691
301,071
284,925
224,542
131,998
26,485
-62,787
-114,003
-126,407
-109,27
-82,173
-62,347
-54,282
-56,281
-60,923
-62,027
-59,413
-55,17
-52,663
-53,576
-57,017
-61,372
-64,998
-67,195
-67,942
-67,259
-65,216
-61,926
-57,621
-52,74
-47,763
-42,955
-38,41
-34,126
-30,042
-26,127
-22,365
-18,674
-14,924
-10,978
-6,711
-2,067
2,938
8,283
13,957
19,956
26,298
32,982
39,975
47,243
54,756
62,501
70,496
78,74
87,218
95,894
104,73
113,727
122,919
132,328
141,957
151,787
161,782
171,915
182,158
192,473
202,809
213,082
223,188
233,028
242,485
251,448
259,797
267,377
274,017
279,575
283,935
287,013
288,743
289,051
287,893
285,257
281,149
275,619
268,716
260,486
251,022
240,425
228,816
216,373
203,281
189,704
175,815
161,773
147,741
133,914
120,447
107,453
95,037
83,274
72,253
62,093
52,854
44,578
37,286
30,949
25,535
21,02
17,342
14,422
12,161
10,414
9,073
8,073
7,342
6,826
6,449
6,1
5,711
5,237
4,638
3,903
3,013
1,941
0,701
-0,67
-2,12
-3,568
-4,961
-6,287
-7,529
-8,68
-9,726
-10,633
-11,394
-12,023
-12,53
-12,93
-13,232
-13,432
-13,556
-13,653
-13,776
-13,997
-14,365
-14,894
-15,6
-16,487
-17,552
-18,799
-20,207
-21,732
-23,349
-25,044
-26,817
-28,694
-30,674
-32,722
-34,797
-36,843
-38,819
-40,717
-42,531
-44,263
-45,938
-47,589
-49,28
-51,122
-53,181
-55,477
-57,993
-60,645
-63,377
-66,184
-69,067
-72,042
-75,117
-78,272
-81,491
-84,744
-87,926
-90,898
-93,417
-95,139
-95,832
-95,319
-93,561
-90,886
-87,648
-84,103
-80,655
-77,592
-74,951
-72,949
-71,189
-68,127
-62,262
-52,279
-38,276
-22,659
-7,673
6,752
25,216
53,926
95,293
144,197
182,359
188,908
151,894
70,304
-34,815
-134,244
-208,127
-243,525
-246,851
-235,421
-219,351
-206,738
-197,65
-185,345
-168,719
-148,835
-127,947
-110,822
-99,565
-94,06
-93,774
-97,087
-102,231
-107,737
-112,557
-116,127
-118,225
-119,02
-118,717
-117,523
-115,859
-114,163
-112,629
-111,282
-109,977
-108,448
-106,537
-104,178
-101,298
-97,853
-93,831
-89,243
-84,143
-78,593
-72,636
-66,295
-59,582
-52,523
-45,165
-37,578
-29,848
-22,058
-14,268
-6,526
1,13
8,671
16,066
23,296
30,348
37,197
43,806
50,124
56,098
61,684
66,856
71,592
75,882
79,727
83,13
86,114
88,705
90,926
92,792
94,307
95,472
96,306
96,84
97,117
97,165
96,991
96,577
