Name
Geburtstag,"27.03.1987"
Aufzeichnungsdatum,2020-08-09 11:56:41 +0200
Klassifizierung,Uneindeutig
Symptome,
Softwareversion,1.13
Gerät,"Watch4,2"
Messrate,510,773 Hertz


Ableitung,Ableitung I
Einheit,µV

-262,136
-311,787
-346,548
-372,469
-392,778
-408,616
-419,695
-422,729
-417,354
-405,648
-390,088
-373,379
-357,394
-343,687
-333,351
-326,569
-322,979
-321,532
-320,849
-320,262
-319,385
-317,693
-315,034
-311,388
-306,798
-301,732
-296,643
-291,499
-286,245
-280,868
-275,374
-270,105
-265,364
-261,149
-257,389
-253,997
-250,607
-246,597
-241,013
-232,384
-219,416
-201,471
-178,602
-151,573
-121,902
-91,801
-63,898
-41,248
-26,677
-21,981
-27,695
-43,034
-65,925
-93,166
-121,129
-146,12
-164,698
-174,408
-174,033
-163,699
-144,891
-120,311
-93,081
-65,987
-41,47
-21,319
-6,526
2,691
6,932
7,635
6,558
5,003
3,922
3,929
5,255
7,978
11,976
16,798
21,858
26,831
31,585
36,135
40,641
45,178
49,764
54,467
59,362
64,477
69,805
75,294
80,855
86,444
92,051
97,674
103,326
109,001
114,682
120,356
126,014
131,653
137,277
142,896
148,522
154,168
159,855
165,602
171,433
177,367
183,415
189,585
195,88
202,308
208,878
215,602
222,49
229,552
236,798
244,237
251,881
259,739
267,818
276,125
284,665
293,443
302,462
311,724
321,228
330,975
340,959
351,174
361,613
372,266
383,12
394,16
405,371
416,734
428,227
439,829
451,512
463,251
475,017
486,78
498,507
510,167
521,724
533,146
544,394
555,435
566,23
576,741
586,933
596,766
606,206
615,215
623,759
631,804
639,32
646,275
652,643
658,398
663,516
667,976
671,758
674,847
677,229
678,891
679,827
680,031
679,501
678,237
676,243
673,525
670,095
665,964
661,148
655,664
649,535
642,783
635,435
627,517
619,06
610,095
600,656
590,777
580,494
569,843
558,86
547,582
536,045
524,287
512,343
500,249
488,04
475,751
463,414
451,063
438,728
426,441
414,23
402,123
390,146
378,323
366,677
355,229
343,997
332,999
322,25
311,763
301,549
291,618
281,976
272,628
263,579
254,83
246,382
238,233
230,382
222,826
215,559
208,579
201,879
195,453
189,296
183,4
177,758
172,362
167,206
162,28
157,578
153,09
148,808
144,723
140,827
137,111
133,565
130,181
126,948
123,858
120,904
118,075
115,366
112,768
110,277
107,885
105,589
103,383
101,263
99,226
97,268
95,385
93,575
91,835
90,162
88,554
87,009
85,526
84,105
82,743
81,441
80,196
79,009
77,879
76,806
75,791
74,836
73,943
73,117
72,363
71,69
71,101
70,605
70,209
69,919
69,739
69,674
69,727
69,9
70,196
70,618
71,173
71,866
72,702
73,688
74,829
76,133
77,605
79,249
81,06
83,038
85,18
87,488
89,968
92,621
95,437
98,405
101,511
104,731
108,038
111,391
114,735
118,011
121,166
124,151
126,929
129,465
131,732
133,698
135,331
136,621
137,575
138,212
138,552
138,619
138,442
138,083
137,631
137,169
136,771
136,495
136,377
136,447
136,708
137,147
137,725
138,356
138,915
139,253
139,205
138,619
137,336
135,157
131,854
127,21
121,03
113,155
103,452
91,796
78,11
62,367
44,596
24,904
3,46
-19,516
-43,767
-69,04
-95,062
-121,516
-148,05
-174,304
-199,945
-224,672
-248,211
-270,281
-290,644
-309,12
-325,578
-339,964
-352,278
-362,576
-370,956
-377,525
-382,423
-385,831
-387,975
-389,117
-389,502
-389,346
-388,855
-388,227
-387,621
-387,17
-386,965
-387,065
-387,525
-388,35
-389,507
-390,952
-392,576
-394,237
-395,79
-396,979
-397,523
-397,247
-396,043
-393,959
-391,271
-388,238
-385,022
-381,847
-378,823
-375,711
-372,05
-367,002
-359,336
-348,111
-332,75
-312,825
-288,567
-261,183
-232,503
-205,105
-182,083
-165,788
-157,993
-160,311
-173,104
-195,225
-224,54
-257,647
-290,561
-320,348
-344,583
-360,809
-367,825
-365,683
-355,304
-339,024
-319,661
-299,066
-278,786
-260,437
-244,868
-232,416
-222,989
-215,54
-208,806
-202,133
-195,072
-187,247
-178,602
-169,148
-159,021
-148,728
-138,834
-129,633
-121,257
-113,721
-106,929
-100,806
-95,268
-90,141
-85,216
-80,359
-75,507
-70,642
-65,781
-60,913
-55,993
-50,991
-45,895
-40,694
-35,385
-29,968
-24,435
-18,795
-13,084
-7,337
-1,598
4,105
9,768
15,394
20,989
26,563
32,123
37,684
43,266
48,886
54,557
60,291
66,095
71,984
77,976
84,089
90,342
96,75
103,322
110,067
116,992
124,101
131,392
138,863
146,505
154,311
162,274
170,387
178,639
187,02
195,517
204,115
212,803
221,567
230,389
239,249
248,124
256,989
265,821
274,595
283,285
291,86
300,29
308,543
316,591
324,406
331,961
339,226
346,165
352,743
358,93
364,708
370,062
374,974
379,42
383,376
386,817
389,725
392,086
393,874
395,064
395,621
395,513
394,722
393,251
391,105
388,275
384,726
380,396
375,228
369,209
362,359
354,727
346,349
337,242
327,412
316,924
305,928
294,51
282,6
269,961
256,305
241,534
225,891
209,716
193,128
176,312
159,62
143,645
129,293
117,069
106,618
97,232
88,313
79,104
68,982
57,245
42,564
24,076
1,967
-23,192
-50,415
-78,247
-105,75
-132,132
-155,942
-176,108
-192,163
-203,762
-211,465
-216,575
-219,806
-221,669
-222,986
-224,281
-226,062
-228,99
-232,915
-237,06
-241,015
-244,524
-247,403
-249,755
-251,522
-252,446
-252,621
-252,409
-252,053
-251,734
-251,493
-251,171
-250,677
-250,037
-249,241
-248,247
-247,035
-245,565
-243,833
-241,895
-239,795
-237,547
-235,16
-232,626
-229,942
-227,136
-224,248
-221,328
-218,441
-215,641
-212,964
-210,441
-208,091
-205,929
-203,963
-202,195
-200,614
-199,213
-197,993
-196,958
-196,113
-195,457
-194,981
-194,671
-194,509
-194,477
-194,557
-194,734
-194,988
-195,303
-195,665
-196,061
-196,481
-196,914
-197,346
-197,763
-198,149
-198,489
-198,768
-198,973
-199,091
-199,109
-199,017
-198,807
-198,472
-198,005
-197,402
-196,659
-195,773
-194,743
-193,57
-192,256
-190,806
-189,224
-187,518
-185,698
-183,774
-181,756
-179,658
-177,492
-175,273
-173,015
-170,736
-168,45
-166,174
-163,926
-161,724
-159,586
-157,529
-155,57
-153,727
-152,016
-150,453
-149,052
-147,828
-146,795
-145,965
-145,351
-144,964
-144,813
-144,908
-145,253
-145,852
-146,708
-147,818
-149,179
-150,782
-152,624
-154,694
-156,984
-159,485
-162,183
-165,065
-168,12
-171,337
-174,701
-178,199
-181,812
-185,52
-189,302
-193,136
-196,999
-200,867
-204,707
-208,49
-212,191
-215,786
-219,254
-222,572
-225,7
-228,603
-231,25
-233,611
-235,661
-237,389
-238,782
-239,844
-240,6
-241,079
-241,327
-241,384
-241,27
-240,995
-240,555
-239,949
-239,195
-238,311
-237,309
-236,221
-235,06
-233,811
-232,445
-230,874
-228,977
-226,673
-223,804
-220,223
-215,917
-210,983
-205,718
-200,51
-195,621
-191,126
-187,015
-183,195
-179,38
-174,754
-168,227
-158,955
-145,952
-130,49
-114,513
-97,481
-80,699
-62,44
-40,566
-21,957
-11,358
-14,923
-39,194
-76,195
-118,106
-158,381
-188,289
-209,876
-225,338
-233,531
-236,374
-233,147
-223,744
-210,981
-196,545
-181,7
-168,077
-156,885
-148,7
-143,693
-141,114
-139,498
-137,951
-136,173
-133,89
-130,835
-126,85
-121,827
-116,056
-110,227
-104,741
-99,724
-95,168
-90,923
-86,88
-82,974
-79,096
-75,081
-70,816
-66,254
-61,399
-56,32
-51,071
-45,682
-40,155
-34,462
-28,586
-22,525
-16,296
-9,936
-3,485
3,009
9,503
15,959
22,343
28,638
34,836
40,945
46,978
52,95
58,864
64,713
70,49
76,188
81,808
87,351
92,825
98,234
103,588
108,901
114,184
119,449
124,704
129,955
135,204
140,452
145,702
150,956
156,218
161,489
166,773
172,07
177,382
182,709
188,049
193,399
198,754
204,105
209,444
214,76
220,042
225,277
230,452
235,553
240,565
245,471
250,255
254,899
259,385
263,692
267,801
271,69
275,339
278,726
281,829
284,629
287,105
289,239
291,014
292,412
293,419
294,02
294,204
293,959
293,276
292,148
290,568
288,533
286,043
283,099
279,704
275,865
271,589
266,887
261,77
256,252
250,349
244,079
237,462
230,519
223,273
215,75
207,976
199,98
191,789
183,433
174,943
166,349
157,681
148,97
140,246
131,539
122,877
114,289
105,803
97,446
89,244
81,22
73,398
65,799
58,442
51,347
44,53
38,005
31,786
25,884
20,309
15,069
10,171
5,619
1,416
-2,437
-5,943
-9,102
-11,921
-14,405
-16,561
-18,399
-19,927
-21,157
-22,1
-22,768
-23,174
-23,331
-23,253
-22,956
-22,452
-21,757
-20,886
-19,854
-18,676
-17,366
-15,94
-14,41
-12,792
-11,099
-9,346
-7,545
-5,711
-3,856
-1,992
-0,132
1,713
3,533
5,318
7,058
8,745
10,373
11,934
13,421
14,831
16,156
17,394
18,541
19,592
20,547
21,403
22,16
22,816
23,373
23,831
24,192
24,458
24,632
24,718
24,72
24,644
24,494
24,279
24,006
23,683
23,32
22,926
22,513
22,09
21,668
21,26
20,874
20,524
20,219
19,97
19,789
19,685
19,669
19,751
19,94
20,244
20,673
21,233
21,931
22,772
23,761
24,902
26,197
27,647
29,253
31,013
32,925
34,984
37,182
39,513
41,966
44,529
47,191
49,935
52,747
55,609
58,504
61,412
64,315
67,192
70,023
72,786
75,461
78,025
80,457
82,736
84,841
86,751
88,446
89,908
91,12
92,064
92,725
93,09
93,146
92,884
92,293
91,369
90,108
88,51
86,578
84,317
81,735
78,841
75,649
72,173
68,429
64,432
60,202
55,76
51,13
46,338
41,413
36,384
31,286
26,152
21,018
15,924
10,905
5,993
1,225
-3,363
-7,732
-11,84
-15,652
-19,142
-22,29
-25,08
-27,502
-29,55
-31,233
-32,576
-33,596
-34,311
-34,732
-34,862
-34,719
-34,316
-33,668
-32,794
-31,695
-30,351
-28,739
-26,829
-24,565
-21,895
-18,742
-15,009
-10,637
-5,587
0,156
6,582
13,695
21,485
29,915
38,937
48,469
58,394
68,593
78,908
89,126
99,024
108,349
116,856
124,298
130,476
135,335
138,746
140,836
141,79
141,135
138,759
134,016
126,184
116,802
106,778
99,013
93,107
88,119
101,957
98,801
3,634
-73,208
21,494
125,938
58,831
-38,944
-39,283
-16,751
-19,092
-23,482
-25,979
-30,297
-34,435
-37,947
-40,267
-41,947
-43,482
-44,497
-45,649
-47,171
-49,661
-54,016
-58,312
-61,451
-60,796
-57,17
-53,134
-29,229
-25,338
-129,57
-209,22
-75,807
65,768
-17,751
-140,5
-130,152
-89,012
-85,172
-86,326
-85,706
-88,497
-91,41
-93,528
-94,16
-93,903
-93,735
-93,486
-93,187
-92,857
-92,398
-91,851
-91,233
-90,517
-89,676
-88,694
-87,559
-86,266
-84,813
-83,198
-81,418
-79,464
-77,323
-74,974
-72,394
-69,562
-66,464
-63,09
-59,434
-55,504
-51,318
-46,91
-42,331
-37,616
-32,785
-27,847
-22,795
-17,62
-12,319
-6,884
-1,307
4,421
10,315
16,378
22,602
29,002
35,615
42,519
49,774
57,417
65,48
73,898
82,85
92,455
102,439
112,761
122,468
130,78
138,182
144,676
153,209
163,182
176,144
207,61
225,97
176,88
131,776
180,1
240,426
230,362
202,786
198,007
197,277
194,557
193,111
190,875
187,525
183,143
178,119
173,158
168,275
163,538
159,032
154,759
150,79
147,155
143,841
140,795
137,913
135,125
132,392
129,688
127,018
124,376
121,74
119,097
116,434
113,737
111,003
108,224
105,387
102,498
99,579
96,668
93,829
91,105
88,518
86,088
83,817
81,705
79,756
77,959
76,298
74,757
73,325
71,993
70,757
69,607
68,526
67,493
66,486
65,482
64,464
63,414
62,315
61,155
59,919
58,601
57,194
55,694
54,091
52,379
50,549
48,593
46,507
44,284
41,919
39,409
36,752
33,95
31,005
27,919
24,698
21,345
17,868
14,272
10,564
6,752
2,844
-1,153
-5,231
-9,378
-13,586
-17,844
-22,142
-26,469
-30,814
-35,166
-39,514
-43,847
-48,157
-52,433
-56,665
-60,842
-64,955
-68,994
-72,949
-76,81
-80,57
-84,218
-87,748
-91,152
-94,424
-97,562
-100,557
-103,412
-106,139
-108,693
-111,048
-113,219
-115,142
-117,044
-119,106
-121,114
-123,13
-124,31
-123,967
-122,715
-120,651
-120,878
-122,87
-128,352
-153,525
-165,869
-109,289
-57,787
-103,981
-163,633
-151,469
-122,169
-117,347
-117,441
-116,073
-116,52
-116,569
-115,846
-114,367
-112,438
-110,683
-108,988
-107,321
-105,707
-104,088
-102,493
-100,948
-99,457
-98,031
-96,684
-95,427
-94,271
-93,226
-92,303
-91,511
-90,858
-90,353
-90,001
-89,808
-89,775
-89,906
-90,199
-90,652
-91,261
-92,02
-92,922
-93,958
-95,122
-96,401
-97,783
-99,254
-100,805
-102,424
-104,103
-105,827
-107,576
-109,332
-111,072
-112,774
-114,413
-115,959
-117,379
-118,639
-119,715
-120,591
-121,253
-121,68
-121,84
-121,695
-121,209
-120,358
-119,128
-117,502
-115,472
-113,038
-110,217
-107,046
-103,56
-99,832
-95,898
-91,732
-87,367
-82,555
-77,131
-71,373
-65,286
-59,75
-55,444
-51,712
-48,423
-42,518
-34,481
-22,403
10,025
30,64
-16,285
-57,71
-2,253
66,366
63,411
42,746
45,697
53,174
58,932
67,334
76,26
82,798
87,393
92,355
101,635
122,659
154,208
186,689
209,96
211,088
189,308
156,813
124,107
102,015
92,839
89,001
86,477
82,49
76,424
71,513
68,263
65,849
64,104
62,15
59,551
56,525
52,97
48,886
44,714
40,733
37,021
33,61
30,39
27,264
24,237
21,295
18,384
15,469
12,55
9,671
6,888
4,247
1,801
-0,402
-2,314
-3,865
-5,069
-6,021
-6,627
-6,797
-6,509
-5,408
-3,476
-1,155
1,678
4,188
5,424
5,87
5,304
6,479
9,212
15,667
42,293
56,121
0,385
-49,617
0,717
66,295
59,952
36,766
38,929
46,283
52,183
59,95
66,885
72,144
76,072
79,292
82,543
85,951
89,468
93,03
96,789
100,968
105,442
110,099
114,869
119,623
124,416
129,318
134,281
139,281
144,334
149,438
154,613
159,886
165,227
170,605
176,007
181,407
186,798
192,175
197,52
202,816
208,046
213,187
218,221
223,127
227,883
232,466
236,851
241,011
244,921
248,555
251,886
254,887
257,529
259,778
261,607
262,984
263,884
264,279
264,145
263,457
262,193
260,333
257,86
254,757
251,012
246,612
241,549
235,817
229,414
222,339
214,594
206,185
197,121
187,411
177,07
166,115
154,564
142,44
129,767
116,573
102,889
88,747
74,182
59,233
43,939
28,343
12,487
-3,582
-19,819
-36,176
-52,604
-69,056
-85,484
-101,838
-118,071
-134,136
-149,987
-165,578
-180,867
-195,809
-210,367
-224,5
-238,174
-251,355
-264,011
-276,113
-287,636
-298,555
-308,849
-318,501
-327,494
-335,816
-343,457
-350,41
-356,673
-362,245
-367,128
-371,33
-374,859
-377,727
-379,949
-381,542
-382,525
-382,921
-382,752
-382,045
-380,826
-379,124
-376,968
-374,388
-371,414
-368,078
-364,411
-360,442
-356,203
-351,723
-347,031
-342,156
-337,126
-331,967
-326,706
-321,367
-315,976
-310,556
-305,127
-299,71
-294,324
-288,986
-283,711
-278,512
-273,399
-268,383
-263,471
-258,668
-253,979
-249,405
-244,946
-240,601
-236,369
-232,244
-228,221
-224,296
-220,46
-216,708
-213,031
-209,422
-205,873
-202,376
-198,924
-195,51
-192,127
-188,767
-185,423
-182,089
-178,758
-175,424
-172,08
-168,722
-165,343
-161,939
-158,507
-155,043
-151,546
-148,013
-144,446
-140,845
-137,212
-133,549
-129,861
-126,152
-122,428
-118,697
-114,965
-111,241
-107,535
-103,856
-100,215
-96,622
-93,088
-89,624
-86,24
-82,947
-79,755
-76,673
-73,713
-70,883
-68,194
-65,655
-63,276
-61,066
-59,035
-57,193
-55,547
-54,106
-52,877
-51,867
-51,083
-50,529
-50,211
-50,133
-50,295
-50,699
-51,344
-52,23
-53,352
-54,708
-56,288
-58,086
-60,092
-62,294
-64,68
-67,236
-69,947
-72,794
-75,763
-78,838
-82,008
-85,262
-88,587
-91,968
-95,389
-98,834
-102,283
-105,716
-109,107
-112,424
-115,639
-118,725
-121,661
-124,437
-127,034
-129,426
-131,584
-133,466
-135,043
-136,3
-137,22
-137,789
-138,003
-137,866
-137,407
-136,688
-135,754
-134,649
-133,395
-131,973
-130,387
-128,657
-126,828
-124,992
-123,184
-121,377
-119,538
-117,605
-115,546
-113,41
-111,101
-108,381
-105,147
-101,364
-97,259
-93,411
-90,051
-87,005
-84,148
-81,316
-78,347
-75,247
-71,325
-65,17
-56,167
-44,58
-31,091
-16,737
-2,563
10,651
21,564
27,501
28,169
26,468
22,624
15,89
3,112
-25,396
-68,44
-113,449
-149,27
-158,195
-136,541
-103,024
-71,069
-56,456
-67,643
-89,835
-113,212
-130,957
-135,825
-134,837
-133,328
-131,855
-133,125
-135,271
-136,122
-136,312
-135,905
-135,175
-134,665
-134,306
-133,842
-133,186
-132,27
-131,041
-129,574
-127,99
-126,348
-124,622
-122,707
-120,538
-118,232
-115,684
-112,392
-108,231
-103,367
-97,752
-91,931
-85,011
-73,915
-59,217
-43,818
-32,318
-33,538
-47,246
-64,546
-76,673
-71,158
-46,816
-15,544
13,437
30,301
33,007
30,417
28,074
29,64
36,369
44,662
52,811
60,958
68,966
77,37
86,325
95,343
104,266
113,174
122,053
130,877
139,672
148,471
157,318
166,284
175,376
184,525
193,687
202,845
211,961
220,994
229,911
238,675
247,279
255,749
264,087
272,278
280,292
288,076
295,598
302,853
309,837
316,553
323,008
329,197
335,143
340,903
346,488
351,874
356,995
361,725
365,979
369,704
372,86
375,436
377,403
378,701
379,292
379,144
378,218
376,478
373,854
370,23
365,559
359,85
353,173
345,671
337,451
328,582
319,137
309,176
298,767
287,999
276,937
265,62
254,113
242,489
230,858
219,372
208,13
197,182
186,538
176,157
166,021
156,143
146,526
137,169
128,078
119,256
110,727
102,541
94,724
87,287
80,222
73,49
67,081
61,004
55,277
49,938
45,011
40,507
36,44
32,829
29,679
26,99
24,747
22,916
21,474
20,403
19,687
19,317
19,277
19,544
20,093
20,9
21,938
23,183
24,606
26,177
27,868
29,656
31,521
33,446
35,414
37,408
39,409
41,402
43,371
45,304
47,184
49
50,738
52,389
53,947
55,405
56,758
58,003
59,138
60,161
61,071
61,87
62,558
63,137
63,609
63,977
64,246
64,419
64,502
64,499
64,417
64,261
64,038
63,754
63,415
63,029
62,601
62,139
61,651
61,141
60,617
60,086
59,555
59,029
58,515
58,019
57,545
57,099
56,685
56,309
55,974
55,686
55,449
55,267
55,145
55,088
55,1
55,187
55,354
55,604
55,943
56,376
56,909
57,545
58,291
59,15
60,128
61,228
62,454
63,809
65,296
66,918
68,676
70,571
72,606
74,781
77,095
79,548
82,138
84,865
87,724
90,712
93,823
97,051
100,389
103,83
107,364
110,982
114,672
118,422
122,221
126,053
129,903
133,755
137,591
141,393
145,14
148,815
152,397
155,866
159,201
162,382
165,391
168,209
170,815
173,192
175,321
177,187
178,774
180,066
181,051
181,717
182,056
182,061
181,728
181,053
180,034
178,671
176,965
174,919
172,538
169,824
166,784
163,428
159,768
155,823
151,613
147,16
142,489
137,627
132,605
127,456
122,208
116,887
111,52
106,137
100,772
95,462
90,241
85,129
80,148
75,315
70,644
66,148
61,827
57,663
53,643
49,754
45,995
42,389
38,949
35,682
32,597
29,69
26,983
24,525
22,349
20,484
18,964
17,814
17,091
16,883
17,249
18,236
19,857
22,075
24,863
28,205
32,061
36,393
41,126
46,115
51,243
56,412
61,493
66,373
70,893
74,831
78,032
80,376
81,77
82,193
81,614
79,975
77,264
73,479
68,641
62,876
56,285
48,951
41,014
32,613
23,938
15,259
6,775
-1,372
-9,048
-16,182
-22,699
-28,476
-33,439
-37,519
-40,646
-42,833
-44,094
-44,42
-43,876
-42,542
-40,539
-38,064
-35,261
-32,217
-29,016
-25,707
-22,329
-18,967
-15,676
-12,504
-9,528
-6,78
-4,289
-2,096
-0,193
1,452
2,893
4,234
5,555
6,894
8,283
9,738
11,259
12,87
14,58
16,388
18,317
20,385
22,605
25,001
27,578
30,323
33,219
36,224
39,303
42,439
45,621
48,842
52,103
55,405
58,755
62,169
65,661
69,24
72,914
76,688
80,573
84,585
88,745
93,07
97,574
102,27
107,167
112,28
117,628
123,216
129,04
135,084
141,33
147,76
154,354
161,076
167,871
174,688
181,478
188,212
194,883
201,477
207,969
214,339
220,558
226,625
232,566
238,392
244,108
249,726
255,256
260,751
266,299
271,962
277,772
283,722
289,762
295,858
301,985
308,084
314,082
319,868
325,288
330,237
334,632
338,362
341,306
343,297
344,13
343,663
341,816
338,546
333,854
327,724
320,137
311,149
300,856
289,39
276,908
263,514
249,296
234,407
219,038
203,412
187,768
172,273
157,034
142,15
127,71
113,811
100,547
87,942
75,983
64,654
53,946
43,899
34,541
25,823
17,642
9,893
2,486
-4,62
-11,427
-17,962
-24,259
-30,346
-36,239
-41,918
-47,352
-52,536
-57,494
-62,273
-66,899
-71,342
-75,535
-79,427
-82,99
-86,223
-89,135
-91,716
-93,952
-95,85
-97,436
-98,749
-99,818
-100,653
-101,247
-101,588
-101,686
-101,571
-101,292
-100,885
-100,377
-99,79
-99,149
-98,484
-97,825
-97,185
-96,565
-95,966
-95,394
-94,865
-94,398
-94,007
-93,7
-93,483
-93,359
-93,33
-93,402
-93,576
-93,85
-94,221
-94,688
-95,254
-95,924
-96,702
-97,59
-98,589
-99,699
-100,922
-102,257
-103,703
-105,256
-106,913
-108,67
-110,524
-112,472
-114,51
-116,634
-118,842
-121,13
-123,495
-125,931
-128,428
-130,978
-133,574
-136,208
-138,871
-141,553
-144,245
-146,94
-149,631
-152,316
-154,986
-157,632
-160,236
-162,784
-165,263
-167,667
-169,992
-172,233
-174,384
-176,436
-178,384
-180,225
-181,956
-183,565
-185,033
-186,34
-187,468
-188,41
-189,172
-189,763
-190,183
-190,411
-190,406
-190,121
-189,537
-188,666
-187,538
-186,169
-184,553
-182,666
-180,536
-178,274
-175,92
-173,375
-170,383
-166,668
-162,166
-157,124
-151,867
-146,513
-141,201
-136,289
-132,473
-130,608
-131,062
-133,422
-136,859
-140,839
-144,998
-148,856
-151,571
-151,998
-149,546
-144,665
-138,489
-131,9
-125,432
-119,516
-114,742
-112,038
-111,999
-114,394
-118,391
-123,265
-128,621
-134,277
-140,092
-145,692
-150,752
-155,3
-159,652
-164,112
-168,819
-173,756
-178,811
-183,958
-189,231
-194,608
-200,016
-205,362
-210,571
-215,612
-220,5
-225,247
-229,84
-234,252
-238,457
-242,441
-246,213
-249,806
-253,235
-256,497
-259,577
-262,442
-265,064
-267,424
-269,495
-271,254
-272,67
-273,708
-274,347
-274,585
-274,401
-273,759
-272,592
-270,793
-268,301
-265,102
-261,206
-256,659
-251,523
-245,864
-239,784
-233,419
-226,885
-220,294
-213,738
-207,273
-200,992
-195,013
-189,484
-184,592
-180,476
-177,211
-174,854
-173,423
-172,899
-173,246
-174,367
-176,106
-178,342
-180,974
-183,925
-187,157
-190,597
-194,147
-197,696
-201,11
-204,279
-207,137
-209,618
-211,677
-213,299
-214,495
-215,318
-215,875
-216,239
-216,451
-216,54
-216,499
-216,338
-216,078
-215,735
-215,327
-214,865
-214,354
-213,8
-213,215
-212,589
-211,904
-211,118
-210,171
-209,018
-207,635
-206,007
-204,13
-202,004
-199,628
-197,011
-194,17
-191,12
-187,874
-184,442
-180,826
-177,037
-173,088
-168,996
-164,781
-160,459
-156,038
-151,53
-146,944
-142,287
-137,565
-132,782
-127,936
-123,031
-118,072
-113,064
-108,01
-102,91
-97,763
-92,564
-87,311
-81,998
-76,617
-71,157
-65,609
-59,965
-54,223
-48,377
-42,415
-36,323
-30,081
-23,676
-17,106
-10,37
-3,466
3,594
10,793
18,099
25,458
32,834
40,204
47,559
54,905
62,244
69,574
76,897
84,215
91,533
98,861
106,202
113,542
120,893
128,283
135,768
143,442
151,354
159,51
167,893
176,452
185,118
193,821
202,455
210,885
218,994
226,673
233,833
240,421
246,35
251,506
255,753
258,914
260,861
261,53
260,876
258,893
255,611
251,081
245,413
238,775
231,302
223,108
214,286
204,89
195,008
184,753
174,251
163,653
153,082
142,625
132,364
122,366
112,663
103,268
94,146
85,214
76,421
67,746
59,182
50,753
42,468
34,323
26,319
18,456
10,735
3,166
-4,244
-11,494
-18,564
-25,424
-32,024
-38,293
-44,181
-49,657
-54,697
-59,294
-63,441
-67,132
-70,373
-73,18
-75,563
-77,537
-79,11
-80,29
-81,091
-81,534
-81,644
-81,451
-80,982
-80,261
-79,314
-78,163
-76,831
-75,339
-73,703
-71,937
-70,058
-68,081
-66,026
-63,911
-61,753
-59,569
-57,374
-55,185
-53,015
-50,877
-48,781
-46,737
-44,753
-42,837
-40,994
-39,231
-37,55
-35,956
-34,451
-33,037
-31,713
-30,48
-29,336
-28,279
-27,308
-26,42
-25,612
-24,881
-24,225
-23,641
-23,126
-22,677
-22,292
-21,966
-21,698
-21,483
-21,318
-21,2
-21,125
-21,089
-21,088
-21,12
-21,181
-21,266
-21,374
-21,498
-21,636
-21,783
-21,935
-22,089
-22,239
-22,381
-22,513
-22,629
-22,726
-22,799
-22,845
-22,857
-22,832
-22,765
-22,65
-22,482
-22,255
-21,964
-21,604
-21,168
-20,652
-20,05
-19,356
-18,566
-17,674
-16,675
-15,566
-14,343
-13,005
-11,548
-9,973
-8,281
-6,473
-4,553
-2,524
-0,392
1,838
4,161
6,568
9,052
11,605
14,218
16,879
19,58
22,308
25,05
27,796
30,53
33,238
35,908
38,524
41,071
43,535
45,899
48,149
50,267
52,24
54,051
55,687
57,135
58,384
59,424
60,245
60,844
61,215
61,36
61,278
60,972
60,442
59,694
58,733
57,567
56,203
54,647
52,903
50,978
48,882
46,632
44,244
41,735
39,122
36,427
33,673
30,897
28,128
25,389
22,705
20,093
17,583
15,22
13,041
11,076
9,348
7,864
6,628
5,649
4,92
4,416
4,102
3,926
3,851
3,863
3,969
4,19
4,521
4,942
5,424
5,944
6,528
7,229
8,111
9,254
10,721
12,56
14,885
17,876
21,607
26,077
31,066
36,12
41,021
45,812
50,557
55,395
60,45
65,748
71,813
79,679
89,918
102,625
117,282
132,618
147,459
160,959
171,741
177,986
178,212
171,209
157,134
137,736
114,912
90,456
66,291
44,314
26,546
15,157
10,859
12,706
19,189
28,427
39,007
49,834
59,195
65,475
68,173
67,387
64,288
59,247
50,058
37,512
24,827
16,912
22,608
41,769
65,415
84,36
86,051
69,25
45,59
24,194
14,73
19,173
28,898
38,584
44,699
46,037
46,107
46,512
47,071
47,901
48,454
48,576
48,739
49,076
49,491
49,985
50,569
51,228
51,938
52,656
53,306
53,865
54,385
54,901
55,426
55,98
56,576
57,225
57,952
58,776
59,709
60,763
61,955
63,298
64,807
66,5
68,392
70,498
72,835
75,414
78,248
81,348
84,724
88,385
92,336
96,581
101,12
105,953
111,074
116,479
122,157
128,098
134,286
140,705
147,335
154,153
161,136
168,254
175,481
182,783
190,13
197,486
204,818
212,088
219,259
226,295
233,157
239,806
246,203
252,31
258,088
263,5
268,51
273,083
277,186
280,787
283,859
286,376
288,313
289,65
290,37
290,458
289,902
288,695
286,83
284,308
281,13
277,302
272,834
267,738
262,03
255,729
248,859
241,444
233,514
225,1
216,234
206,953
197,296
187,301
177,012
166,47
155,719
144,805
133,772
122,665
111,529
100,409
89,348
78,389
67,572
56,937
46,524
36,367
26,501
16,959
7,771
-1,036
-9,436
-17,407
-24,929
-31,985
-38,56
-44,643
-50,225
-55,301
-59,868
-63,925
-67,476
-70,527
-73,084
-75,159
-76,764
-77,915
-78,627
-78,92
-78,814
-78,33
-77,491
-76,32
-74,84
-73,076
-71,053
-68,795
-66,326
-63,671
-60,855
-57,902
-54,834
-51,676
-48,451
-45,18
-41,885
-38,587
-35,305
-32,058
-28,864
-25,74
-22,7
-19,759
-16,93
-14,225
-11,652
-9,222
-6,942
-4,816
-2,851
-1,049
0,588
2,057
3,359
4,494
5,461
6,264
6,902
7,378
7,694
7,854
7,859
7,714
7,422
6,987
6,415
5,709
4,876
3,921
2,851
1,673
0,393
-0,98
-2,438
-3,973
-5,576
-7,239
-8,952
-10,708
-12,498
-14,315
-16,151
-17,999
-19,85
-21,699
-23,538
-25,36
-27,157
-28,922
-30,648
-32,328
-33,953
-35,518
-37,014
-38,434
-39,771
-41,018
-42,169
-43,216
-44,154
-44,978
-45,684
-46,27
-46,733
-47,075
-47,296
-47,398
-47,386
-47,262
-47,032
-46,7
-46,271
-45,752
-45,149
-44,47
-43,722
-42,913
-42,052
-41,149
-40,216
-39,261
-38,295
-37,329
-36,375
-35,443
-34,545
-33,693
-32,899
-32,177
-31,54
-31
-30,571
-30,261
-30,082
-30,04
-30,142
-30,391
-30,788
-31,332
-32,023
-32,859
-33,839
-34,959
-36,214
-37,599
-39,111
-40,746
-42,501
-44,367
-46,334
-48,386
-50,511
-52,695
-54,922
-57,173
-59,424
-61,654
-63,85
-65,996
-68,085
-70,099
-72,008
-73,784
-75,403
-76,844
-78,097
-79,156
-80,013
-80,676
-81,177
-81,551
-81,843
-82,084
-82,268
-82,392
-82,438
-82,382
-82,228
-81,97
-81,598
-81,125
-80,552
-79,841
-78,958
-77,833
-76,363
-74,489
-72,109
-69,079
-65,394
-61,181
-56,721
-52,37
-48,283
-44,362
-40,5
-36,754
-33,104
-29,309
-24,748
-18,71
-11,059
-2,423
6,184
14,09
20,863
25,934
28,341
26,912
21,126
11,616
-0,183
-13,172
-26,685
-40,159
-52,898
-63,806
-72,06
-77,729
-81,549
-84,137
-85,818
-86,659
-86,635
-86,077
-85,354
-84,546
-83,543
-82,17
-80,337
-78,116
-75,654
-73,026
-70,288
-67,5
-64,721
-62,055
-59,585
-57,376
-55,507
-53,983
-52,767
-51,794
-50,952
-50,163
-49,392
-48,593
-47,725
-46,761
-45,673
-44,469
-43,192
-41,857
-40,463
-38,99
-37,395
-35,664
-33,816
-31,871
-29,864
-27,822
-25,753
-23,676
-21,613
-19,573
-17,554
-15,543
-13,504
-11,418
-9,272
-7,057
-4,771
-2,405
0,054
2,619
5,302
8,117
11,079
14,202
17,508
21,01
24,72
28,645
32,787
37,149
41,735
46,545
51,58
56,836
62,311
68
73,899
80
86,292
92,761
99,39
106,161
113,053
120,042
127,103
134,209
141,332
148,443
155,512
162,508
169,4
176,154
182,738
189,118
195,26
201,13
206,693
211,917
216,769
221,219
225,237
228,795
231,868
234,432
236,465
237,947
238,861
239,191
238,925
238,052
236,566
234,463
231,742
228,406
224,463
219,92
214,79
209,089
202,834
196,047
188,75
180,968
172,731
164,069
155,015
145,604
135,872
125,858
115,601
105,141
94,519
83,776
72,951
62,085
51,217
40,387
29,632
18,991
8,498
-1,812
-11,904
-21,749
-31,316
-40,578
-49,512
-58,093
-66,301
-74,12
-81,532
-88,526
-95,089
-101,214
-106,895
-112,129
-116,914
-121,253
-125,15
-128,612
-131,648
-134,269
-136,489
-138,321
-139,781
-140,886
-141,653
-142,101
-142,249
-142,115
-141,721
-141,085
-140,228
-139,171
-137,934
-136,536
-134,996
-133,336
-131,571
-129,722
-127,805
-125,838
-123,836
-121,817
-119,794
-117,783
-115,796
-113,847
-111,945
-110,102
-108,325
-106,622
-104,998
-103,46
-102,01
-100,652
-99,388
-98,22
-97,148
-96,173
-95,295
-94,512
-93,825
-93,231
-92,727
-92,312
-91,981
-91,732
-91,561
-91,462
-91,43
-91,461
-91,549
-91,686
-91,866
-92,082
-92,325
-92,587
-92,859
-93,132
-93,398
-93,646
-93,87
-94,059
-94,207
-94,305
-94,346
-94,323
-94,227
-94,054
-93,796
-93,447
-93
-92,45
-91,791
-91,018
-90,128
-89,118
-87,986
-86,729
-85,35
-83,848
-82,226
-80,487
-78,633
-76,67
-74,604
-72,441
-70,19
-67,86
-65,462
-63,007
-60,508
-57,978
-55,432
-52,882
-50,343
-47,827
-45,351
-42,926
-40,568
-38,29
-36,107
-34,034
-32,087
-30,281
-28,628
-27,142
-25,832
-24,71
-23,781
-23,053
-22,528
-22,207
-22,092
-22,185
-22,486
-22,994
-23,707
-24,619
-25,726
-27,024
-28,508
-30,169
-31,994
-33,966
-36,072
-38,294
-40,615
-43,019
-45,481
-47,975
-50,483
-52,985
-55,462
-57,897
-60,256
-62,506
-64,619
-66,567
-68,332
-69,91
-71,291
-72,484
-73,516
-74,409
-75,201
-75,928
-76,593
-77,208
-77,767
-78,242
-78,631
-78,932
-79,141
-79,299
-79,423
-79,477
-79,417
-79,14
-78,53
-77,551
-76,091
-73,981
-71,182
-67,696
-63,74
-59,83
-56,248
-53,017
-50,139
-47,434
-44,667
-41,764
-38,119
-32,641
-24,791
-14,474
-2,245
10,533
22,653
33,231
40,814
43,583
40,178
29,594
12,259
-9,919
-35,114
-61,607
-87,472
-110,804
-129,654
-142,026
-147,41
-146,825
-141,583
-133,327
-123,452
-112,918
-103,001
-95,234
-90,352
-88,196
-88,11
-88,957
-90,006
-91,083
-91,898
-92,081
-91,452
-90,019
-88,106
-86,323
-85,018
-84,217
-83,863
-83,805
-83,904
-84,116
-84,347
-84,441
-84,314
-83,924
-83,278
-82,444
-81,47
-80,349
-79,048
-77,522
-75,741
-73,713
-71,466
-69,034
-66,461
-63,778
-61,011
-58,184
-55,309
-52,387
-49,404
-46,335
-43,152
-39,84
-36,396
-32,823
-29,126
-25,301
-21,342
-17,241
-12,992
-8,585
-4,012
0,739
5,673
10,795
16,104
21,598
27,269
33,113
39,124
45,295
51,622
58,098
64,713
71,46
78,327
85,302
92,37
99,514
106,715
113,952
121,204
128,446
135,656
142,809
149,879
156,841
163,67
170,34
176,826
183,103
189,146
194,931
200,434
205,63
210,497
215,013
219,157
222,909
226,251
229,165
231,635
233,649
235,194
236,259
236,836
236,918
236,502
235,585
234,169
232,256
229,853
226,968
223,611
219,796
215,539
210,855
205,766
200,293
194,456
188,282
181,796
175,024
167,992
160,731
153,268
145,632
137,854
129,963
121,99
113,964
105,917
97,877
89,874
81,938
74,095
66,373
58,797
51,393
44,183
37,19
30,432
23,928
17,695
11,747
6,097
0,755
-4,269
-8,971
-13,345
-17,39
-21,103
-24,487
-27,543
-30,277
-32,693
-34,798
-36,6
-38,108
-39,333
-40,285
-40,977
-41,422
-41,634
-41,628
-41,419
-41,024
-40,457
-39,736
-38,877
-37,896
-36,81
-35,637
-34,391
-33,09
-31,748
-30,382
-29,005
-27,632
-26,274
-24,944
-23,654
-22,413
-21,231
-20,117
-19,079
-18,123
-17,257
-16,487
-15,817
-15,252
-14,795
-14,449
-14,218
-14,101
-14,1
-14,215
-14,446
-14,792
-15,25
-15,82
-16,498
-17,28
-18,162
-19,139
-20,207
-21,359
-22,59
-23,891
-25,258
-26,682
-28,157
-29,676
-31,23
-32,811
-34,412
-36,025
-37,641
-39,252
-40,849
-42,423
-43,967
-45,472
-46,93
-48,331
-49,669
-50,934
-52,119
-53,216
-54,218
-55,117
-55,908
-56,583
-57,137
-57,567
-57,867
-58,036
-58,069
-57,966
-57,725
-57,347
-56,831
-56,18
-55,396
-54,483
-53,445
-52,288
-51,02
-49,648
-48,181
-46,629
-45,004
-43,315
-41,575
-39,798
-37,995
-36,181
-34,371
-32,581
-30,825
-29,121
-27,484
-25,931
-24,478
-23,14
-21,932
-20,869
-19,964
-19,229
-18,675
-18,314
-18,154
-18,207
-18,481
-18,982
-19,714
-20,675
-21,868
-23,289
-24,936
-26,801
-28,872
-31,136
-33,583
-36,207
-39,002
-41,956
-45,052
-48,272
-51,596
-55,009
-58,498
-62,041
-65,609
-69,172
-72,704
-76,183
-79,599
-82,932
-86,15
-89,216
-92,086
-94,73
-97,125
-99,245
-101,067
-102,547
-103,638
-104,316
-104,566
-104,4
-103,861
-102,963
-101,697
-100,077
-98,086
-95,781
-93,334
-90,738
-87,83
-84,477
-80,479
-75,864
-71,043
-66,146
-60,953
-55,664
-50,734
-46,759
-44,804
-45,161
-46,95
-49,651
-53,069
-56,42
-58,915
-59,379
-55,627
-46,746
-33,701
-17,406
0,997
19,769
37,734
53,329
63,862
67,925
65,868
58,345
46,86
33,401
19,037
4,961
-6,954
-15,698
-21,121
-23,348
-23,353
-22,397
-21,027
-19,702
-19,017
-19,168
-20,248
-22,306
-24,993
-27,858
-30,72
-33,471
-36,061
-38,571
-41
-43,303
-45,515
-47,669
-49,774
-51,839
-53,846
-55,757
-57,546
-59,191
-60,663
-61,949
-63,036
-63,905
-64,535
-64,906
-65,011
-64,861
-64,477
-63,884
-63,095
-62,12
-60,967
-59,647
-58,17
-56,54
-54,761
-52,829
-50,747
-48,521
-46,157
-43,666
-41,054
-38,323
-35,477
-32,517
-29,446
-26,264
-22,967
-19,551
-16,012
-12,35
-8,561
-4,642
-0,589
3,598
7,916
12,362
16,939
21,653
26,515
31,53
36,693
41,996
47,428
52,974
58,613
64,307
70
75,637
81,18
86,607
91,913
97,086
102,117
106,991
111,697
116,246
120,654
124,928
129,066
133,068
136,952
140,773
144,617
148,558
152,624
156,81
161,077
165,39
169,699
173,935
178,001
181,758
185,082
187,881
190,086
191,633
192,432
192,354
191,235
188,951
185,429
180,64
174,588
167,284
158,772
149,14
138,533
127,143
115,136
102,638
89,748
76,564
63,206
49,83
36,607
23,672
11,131
-0,931
-12,447
-23,347
-33,593
-43,191
-52,192
-60,679
-68,707
-76,296
-83,45
-90,168
-96,46
-102,353
-107,869
-113,011
-117,776
-122,167
-126,186
-129,844
-133,137
-136,04
-138,511
-140,501
-141,98
-142,938
-143,375
-143,294
-142,705
-141,617
-140,05
-138,038
-135,612
-132,798
-129,62
-126,102
-122,271
-118,164
-113,818
-109,273
-104,565
-99,725
-94,787
-89,781
-84,738
-79,683
-74,64
-69,629
-64,669
-59,785
-54,997
-50,327
-45,793
-41,413
-37,202
-33,176
-29,348
-25,728
-22,326
-19,147
-16,197
-13,48
-10,997
-8,749
-6,735
-4,953
-3,396
-2,062
-0,943
-0,034
0,674
1,188
1,517
1,671
1,658
1,49
1,179
0,738
0,179
-0,483
-1,235
-2,06
-2,943
-3,869
-4,822
-5,791
-6,763
-7,724
-8,663
-9,567
-10,427
-11,231
-11,967
-12,622
-13,18
-13,627
-13,955
-14,155
-14,218
-14,138
-13,906
-13,518
-12,976
-12,275
-11,412
-10,376
-9,147
-7,721
-6,104
-4,31
-2,362
-0,283
1,913
4,199
6,538
8,909
11,298
13,71
16,178
18,713
21,311
23,955
26,603
29,24
31,871
34,507
37,162
39,855
42,593
45,413
48,383
51,521
54,818
58,215
61,596
64,884
68,032
71,007
73,799
76,382
78,699
80,711
82,385
83,68
84,558
84,945
84,721
83,832
82,283
80,129
77,506
74,526
71,199
67,559
63,663
59,503
55,37
51,487
47,672
44,033
39,814
34,447
28,658
22,618
19,342
18,311
21,118
43,313
53,592
-2,038
-52,377
-8,313
49,07
37,713
10,254
6,724
8,266
8,672
10,999
13,059
14,47
15,244
15,711
16,493
17,487
18,686
20,117
21,726
23,543
25,567
27,769
30,162
32,779
35,688
38,977
42,685
46,822
51,373
56,276
61,462
66,846
72,303
77,735
83,058
88,193
93,091
97,708
101,961
105,758
108,979
111,473
113,146
113,939
113,811
112,784
110,908
108,262
104,989
101,211
97,018
92,497
87,7
82,674
77,499
72,257
67,041
61,98
57,166
52,669
48,558
44,85
41,534
38,576
35,891
33,402
31,07
28,859
26,762
24,783
22,906
21,125
19,438
17,818
16,248
14,713
13,193
11,689
10,216
8,801
7,491
6,33
5,344
4,551
3,962
3,573
3,385
3,391
3,574
3,925
4,442
5,119
5,959
6,963
8,124
9,44
10,901
12,497
14,221
16,066
18,027
20,1
22,281
24,567
26,959
29,46
32,074
34,803
37,653
40,625
43,725
46,958
50,331
53,849
57,515
61,329
65,292
69,409
73,689
78,149
82,796
87,627
92,635
97,813
103,148
108,619
114,192
119,812
125,43
131,011
136,54
142,016
147,435
152,793
158,08
163,289
168,434
173,535
178,602
183,636
188,644
193,647
198,704
203,906
209,325
214,989
220,888
226,978
233,214
239,54
245,881
252,133
258,156
263,818
269,022
273,693
277,756
281,112
283,62
285,104
285,428
284,509
282,31
278,83
274,072
268,073
260,914
252,727
243,69
233,956
223,635
212,812
201,575
190,03
178,324
166,619
155,041
143,686
132,626
121,917
111,617
101,752
92,307
83,22
74,404
65,802
57,389
49,161
41,117
33,246
25,521
17,917
10,434
3,075
-4,158
-11,26
-18,236
-25,072
-31,733
-38,168
-44,317
-50,14
-55,616
-60,731
-65,48
-69,857
-73,858
-77,491
-80,774
-83,723
-86,351
-88,668
-90,683
-92,412
-93,878
-95,106
-96,123
-96,953
-97,617
-98,136
-98,529
-98,815
-99,011
-99,129
-99,179
-99,174
-99,128
-99,054
-98,968
-98,882
-98,808
-98,759
-98,747
-98,783
-98,875
-99,031
-99,256
-99,557
-99,938
-100,401
-100,95
-101,584
-102,305
-103,11
-103,999
-104,967
-106,012
-107,129
-108,311
-109,553
-110,848
-112,189
-113,568
-114,976
-116,407
-117,85
-119,298
-120,742
-122,171
-123,575
-124,946
-126,272
-127,542
-128,748
-129,878
-130,922
-131,87
-132,712
-133,439
-134,042
-134,512
-134,841
-135,02
-135,043
-134,903
-134,594
-134,112
-133,45
-132,607
-131,58
-130,365
-128,964
-127,375
-125,598
-123,636
-121,49
-119,165
-116,665
-113,997
-111,166
-108,182
-105,053
-101,792
-98,409
-94,918
-91,33
-87,66
-83,921
-80,13
-76,302
-72,453
-68,599
-64,759
-60,951
-57,192
-53,502
-49,898
-46,398
-43,02
-39,781
-36,698
-33,786
-31,062
-28,539
-26,232
-24,154
-22,318
-20,735
-19,413
-18,36
-17,58
-17,077
-16,85
-16,897
-17,212
-17,787
-18,616
-19,689
-20,995
-22,524
-24,26
-26,193
-28,31
-30,594
-33,027
-35,586
-38,246
-40,981
-43,766
-46,57
-49,364
-52,119
-54,804
-57,396
-59,874
-62,213
-64,388
-66,367
-68,117
-69,609
-70,829
-71,76
-72,388
-72,712
-72,736
-72,482
-71,993
-71,297
-70,405
-69,323
-68,036
-66,538
-64,826
-62,892
-60,728
-58,327
-55,673
-52,765
-49,617
-46,215
-42,533
-38,516
-34,073
-29,153
-23,75
-17,876
-11,575
-4,911
2,052
9,213
16,438
23,612
30,629
37,404
43,887
49,991
55,609
60,606
64,81
68,097
70,401
71,675
71,903
71,109
69,336
66,685
63,319
59,366
54,934
50,107
44,931
39,485
33,871
28,202
22,612
17,209
12,064
7,244
2,804
-1,238
-4,884
-8,184
-11,238
-14,117
-16,86
-19,493
-22,012
-24,428
-26,766
-29,041
-31,271
-33,47
-35,644
-37,803
-39,963
-42,121
-44,258
-46,34
-48,308
-50,122
-51,761
-53,208
-54,46
-55,515
-56,368
-57,024
-57,496
-57,793
-57,92
-57,878
-57,664
-57,278
-56,727
-56,018
-55,164
-54,17
-53,042
-51,779
-50,385
-48,855
-47,187
-45,374
-43,405
-41,269
-38,959
-36,47
-33,794
-30,925
-27,856
-24,58
-21,091
-17,384
-13,45
-9,283
-4,876
-0,224
4,678
9,831
15,239
20,9
26,813
32,973
39,374
46,008
52,865
59,931
67,192
74,631
82,229
89,963
97,812
105,75
113,749
121,783
129,819
137,829
145,778
153,634
161,362
168,928
176,295
183,429
190,293
196,852
203,071
208,914
214,348
219,34
223,859
227,876
231,364
234,297
236,653
238,413
239,56
240,081
239,966
239,209
237,806
235,758
233,068
229,744
225,794
221,232
216,074
210,337
204,045
197,221
189,892
182,088
173,842
165,187
156,161
146,802
137,148
127,241
117,123
106,837
96,424
85,929
75,394
64,863
54,376
43,976
33,701
23,589
13,676
3,994
-5,425
-14,553
-23,364
-31,835
-39,944
-47,674
-55,007
-61,931
-68,435
-74,509
-80,149
-85,35
-90,113
-94,44
-98,335
-101,805
-104,859
-107,509
-109,767
-111,647
-113,166
-114,342
-115,194
-115,742
-116,007
-116,013
-115,782
-115,337
-114,7
-113,893
-112,939
-111,858
-110,67
-109,394
-108,048
-106,649
-105,215
-103,761
-102,301
-100,851
-99,422
-98,026
-96,674
-95,375
-94,137
-92,967
-91,871
-90,853
-89,918
-89,068
-88,306
-87,633
-87,05
-86,554
-86,146
-85,821
-85,576
-85,407
-85,31
-85,278
-85,308
-85,394
-85,532
-85,717
-85,945
-86,213
-86,515
-86,847
-87,206
-87,586
-87,984
-88,394
-88,813
-89,235
-89,657
-90,074
-90,482
-90,876
-91,251
-91,602
-91,923
-92,209
-92,454
-92,652
-92,799
-92,888
-92,914
-92,874
-92,761
-92,573
-92,304
-91,95
-91,506
-90,967
-90,329
-89,587
-88,737
-87,772
-86,691
-85,488
-84,161
-82,706
-81,122
-79,406
-77,559
-75,58
-73,469
-71,23
-68,866
-66,382
-63,783
-61,079
-58,278
-55,388
-52,422
-49,389
-46,303
-43,176
-40,02
-36,851
-33,683
-30,53
-27,41
-24,337
-21,33
-18,404
-15,576
-12,864
-10,284
-7,852
-5,586
-3,501
-1,613
0,064
1,517
2,732
3,699
4,409
4,856
5,033
4,939
4,574
3,943
3,049
1,899
0,501
-1,133
-2,992
-5,061
-7,332
-9,795
-12,438
-15,242
-18,188
-21,253
-24,413
-27,645
-30,92
-34,203
-37,46
-40,66
-43,778
-46,799
-49,705
-52,467
-55,052
-57,414
-59,518
-61,344
-62,872
-64,082
-64,966
-65,523
-65,779
-65,787
-65,587
-65,202
-64,634
-63,858
-62,847
-61,594
-60,107
-58,416
-56,561
-54,545
-52,355
-49,976
-47,378
-44,542
-41,44
-37,953
-33,927
-29,32
-24,255
-19,054
-14,077
-9,479
-5,139
-0,875
3,301
7,394
11,658
16,729
23,355
31,794
41,481
51,364
60,747
69,176
76,093
80,621
81,615
78,485
71,761
62,755
52,49
41,605
30,625
20,185
11,293
4,672
0,221
-2,773
-4,929
-6,577
-7,838
-8,79
-9,782
-11,143
-12,885
-14,772
-16,549
-18,088
-19,402
-20,577
-21,623
-22,507
-23,246
-23,909
-24,576
-25,297
-26,074
-26,876
-27,659
-28,396
-29,054
-29,589
-29,969
-30,171
-30,179
-29,989
-29,6
-29,013
-28,237
-27,288
-26,179
-24,917
-23,509
-21,959
-20,278
-18,477
-16,566
-14,553
-12,445
-10,244
-7,954
-5,578
-3,116
-0,563
2,086
4,843
7,716
10,71
13,833
17,091
20,489
24,035
27,733
31,587
35,601
39,781
44,131
48,658
53,364
58,252
63,325
68,583
74,025
79,649
85,452
91,425
97,563
103,856
110,293
116,862
123,547
130,332
137,2
144,129
151,099
158,087
165,067
172,013
178,897
185,693
192,371
198,903
205,258
211,409
217,325
222,978
228,338
233,378
238,069
242,385
246,298
249,786
252,826
255,395
257,476
259,052
260,108
260,632
260,614
260,047
258,927
257,252
255,021
252,239
248,913
245,051
240,665
235,771
230,387
224,532
218,229
211,503
204,38
196,889
189,06
180,924
172,514
163,864
155,01
145,987
136,832
127,581
118,27
108,935
99,612
90,335
81,138
72,054
63,112
54,345
45,779
37,442
29,358
21,552
14,043
6,851
-0,009
-6,521
-12,676
-18,464
-23,878
-28,916
-33,575
-37,857
-41,763
-45,299
-48,471
-51,288
-53,76
-55,901
-57,722
-59,241
-60,472
-61,432
-62,14
-62,613
-62,87
-62,93
-62,811
-62,532
-62,111
-61,567
-60,919
-60,183
-59,378
-58,52
-57,625
-56,708
-55,783
-54,863
-53,96
-53,083
-52,242
-51,445
-50,699
-50,009
-49,38
-48,817
-48,321
-47,894
-47,536
-47,248
-47,029
-46,875
-46,786
-46,758
-46,789
-46,875
-47,013
-47,2
-47,434
-47,712
-48,029
-48,384
-48,774
-49,195
-49,646
-50,122
-50,624
-51,147
-51,691
-52,256
-52,839
-53,441
-54,062
-54,701
-55,36
-56,039
-56,739
-57,46
-58,205
-58,975
-59,771
-60,595
-61,448
-62,333
-63,251
-64,202
-65,189
-66,21
-67,265
-68,353
-69,472
-70,621
-71,796
-72,993
-74,209
-75,44
-76,681
-77,927
-79,172
-80,411
-81,637
-82,843
-84,022
-85,168
-86,272
-87,327
-88,326
-89,262
-90,126
-90,913
-91,614
-92,222
-92,731
-93,135
-93,427
-93,6
-93,65
-93,572
-93,361
-93,015
-92,532
-91,911
-91,154
-90,261
-89,237
-88,086
-86,813
-85,423
-83,924
-82,323
-80,629
-78,851
-77
-75,085
-73,119
-71,114
-69,083
-67,039
-64,997
-62,968
-60,967
-59,008
-57,103
-55,268
-53,515
-51,857
-50,308
-48,882
-47,59
-46,447
-45,461
-44,642
-43,999
-43,538
-43,263
-43,176
-43,275
-43,559
-44,025
-44,67
-45,49
-46,478
-47,628
-48,935
-50,393
-51,994
-53,73
-55,585
-57,543
-59,588
-61,701
-63,863
-66,052
-68,246
-70,422
-72,561
-74,652
-76,676
-78,616
-80,447
-82,138
-83,667
-85,022
-86,193
-87,173
-87,961
-88,561
-88,996
-89,307
-89,532
-89,693
-89,795
-89,823
-89,769
-89,626
-89,39
-89,054
-88,593
-87,973
-87,171
-86,178
-84,975
-83,528
-81,767
-79,584
-76,894
-73,655
-69,867
-65,565
-60,785
-55,578
-50,018
-44,208
-38,29
-32,398
-26,63
-21,06
-15,765
-10,848
-6,456
-2,776
0,048
1,923
2,805
2,686
1,565
-0,523
-3,499
-7,224
-11,517
-16,225
-21,238
-26,475
-31,857
-37,281
-42,607
-47,678
-52,375
-56,613
-60,329
-63,48
-66,025
-67,956
-69,312
-70,18
-70,675
-70,882
-70,848
-70,602
-70,166
-69,573
-68,871
-68,106
-67,299
-66,465
-65,62
-64,778
-63,96
-63,166
-62,376
-61,544
-60,62
-59,571
-58,383
-57,049
-55,567
-53,935
-52,152
-50,226
-48,174
-46,009
-43,739
-41,366
-38,89
-36,315
-33,652
-30,913
-28,111
-25,252
-22,339
-19,372
-16,354
-13,281
-10,147
-6,94
-3,646
-0,254
3,24
6,844
10,565
14,408
18,382
22,491
26,739
31,135
35,689
40,414
45,32
50,415
55,703
61,185
66,864
72,739
78,812
85,077
91,53
98,169
104,998
112,021
119,232
126,611
134,123
141,736
149,419
157,137
164,853
172,523
180,112
187,61
195
202,273
209,4
216,328
223,022
229,448
235,572
241,387
246,89
252,034
256,862
261,437
265,675
269,545
272,964
275,757
277,978
279,744
280,93
281,467
281,59
281,405
281,178
281,251
281,221
280,651
279,53
277,718
274,88
270,841
265,109
257,188
247,665
237,14
225,782
213,901
201,692
189,219
176,988
165,526
154,535
143,728
133,043
122,306
111,639
101,242
90,97
80,638
70,365
60,239
50,342
40,822
31,64
22,726
14,123
5,872
-2,01
-9,49
-16,572
-23,29
-29,647
-35,649
-41,299
-46,572
-51,45
-55,923
-59,986
-63,638
-66,877
-69,693
-72,088
-74,081
-75,702
-76,985
-77,956
-78,633
-79,034
-79,178
-79,089
-78,796
-78,323
-77,691
-76,924
-76,044
-75,076
-74,049
-72,985
-71,901
-70,811
-69,728
-68,668
-67,643
-66,667
-65,748
-64,895
-64,116
-63,42
-62,814
-62,302
-61,888
-61,572
-61,353
-61,23
-61,202
-61,262
-61,409
-61,634
-61,935
-62,304
-62,736
-63,226
-63,768
-64,357
-64,986
-65,651
-66,347
-67,068
-67,811
-68,57
-69,342
-70,124
-70,911
-71,703
-72,495
-73,287
-74,077
-74,864
-75,646
-76,423
-77,192
-77,955
-78,71
-79,457
-80,198
-80,933
-81,662
-82,387
-83,107
-83,824
-84,536
-85,243
-85,943
-86,633
-87,312
-87,977
-88,622
-89,245
-89,841
-90,405
-90,93
-91,413
-91,846
-92,223
-92,537
-92,782
-92,951
-93,039
-93,037
-92,942
-92,746
-92,446
-92,036
-91,513
-90,873
-90,111
-89,227
-88,216
-87,079
-85,814
-84,422
-82,905
-81,266
-79,508
-77,638
-75,662
-73,587
-71,422
-69,177
-66,863
-64,492
-62,075
-59,628
-57,162
-54,693
-52,236
-49,806
-47,417
-45,086
-42,827
-40,653
-38,579
-36,619
-34,784
-33,086
-31,538
-30,148
-28,924
-27,876
-27,009
-26,33
-25,843
-25,551
-25,454
-25,553
-25,849
-26,337
-27,015
-27,875
-28,906
-30,099
-31,445
-32,932
-34,552
-36,292
-38,137
-40,073
-42,086
-44,162
-46,287
-48,441
-50,6
-52,741
-54,845
-56,898
-58,891
-60,811
-62,639
-64,353
-65,931
-67,356
-68,619
-69,706
-70,6
-71,284
-71,748
-71,993
-72,043
-71,917
-71,633
-71,192
-70,579
-69,803
-68,89
-67,888
-66,873
-65,885
-64,929
-64,003
-63,091
-62,214
-61,448
-60,787
-60,131
-59,445
-58,752
-58,266
-58,456
-59,538
-61,391
-63,807
-66,478
-69,087
-71,458
-72,919
-72,19
-68,44
-61,485
-51,789
-40,628
-29,205
-18,176
-8,724
-2,752
-1,782
-6,743
-17,324
-31,577
-47,496
-63,907
-79,488
-92,549
-101,5
-104,888
-102,504
-95,952
-87,168
-77,377
-67,514
-58,387
-50,855
-46,047
-44,415
-45,214
-47,274
-49,75
-52,187
-54,455
-56,426
-57,68
-57,919
-57,277
-56,147
-54,88
-53,631
-52,354
-50,931
-49,368
-47,735
-46,058
-44,305
-42,418
-40,365
-38,165
-35,876
-33,552
-31,213
-28,868
-26,51
-24,141
-21,772
-19,417
-17,086
-14,779
-12,494
-10,219
-7,945
-5,668
-3,38
-1,074
1,263
3,647
6,091
8,604
11,192
13,862
16,627
19,499
22,492
25,617
28,883
32,297
35,869
39,609
43,526
47,625
51,915
56,402
61,095
66,003
71,129
76,475
82,038
87,812
93,791
99,965
106,325
112,852
119,533
126,357
133,32
140,421
147,65
154,98
162,373
169,795
177,212
184,59
191,884
199,043
206,023
212,8
219,371
225,739
231,898
237,818
243,451
248,746
253,669
258,211
262,382
266,177
269,59
272,639
275,371
277,862
280,175
282,302
284,177
285,722
286,877
287,609
287,912
287,763
287,12
285,925
284,124
281,692
278,61
274,814
270,188
264,576
257,841
249,957
241,002
231,068
220,247
208,624
196,276
183,336
169,975
156,342
142,557
128,709
114,87
101,175
87,819
75,027
63,02
51,916
41,734
32,482
24,164
16,757
10,22
4,445
-0,731
-5,419
-9,685
-13,566
-17,083
-20,3
-23,33
-26,294
-29,314
-32,463
-35,76
-39,23
-42,89
-46,727
-50,705
-54,737
-58,697
-62,503
-66,117
-69,517
-72,701
-75,651
-78,328
-80,706
-82,763
-84,484
-85,865
-86,897
-87,571
-87,897
-87,904
-87,639
-87,17
-86,546
-85,794
-84,938
-83,99
-82,964
-81,877
-80,734
-79,534
-78,282
-76,987
-75,66
-74,317
-72,966
-71,609
-70,246
-68,874
-67,491
-66,097
-64,693
-63,283
-61,87
-60,458
-59,056
-57,675
-56,323
-55,005
-53,727
-52,491
-51,301
-50,157
-49,064
-48,02
-47,027
-46,087
-45,202
-44,375
-43,605
-42,895
-42,246
-41,656
-41,125
-40,653
-40,235
-39,869
-39,554
-39,284
-39,058
-38,87
-38,716
-38,593
-38,495
-38,416
-38,351
-38,293
-38,236
-38,172
-38,092
-37,992
-37,862
-37,695
-37,485
-37,224
-36,906
-36,525
-36,073
-35,545
-34,934
-34,233
-33,438
-32,542
-31,541
-30,431
-29,209
-27,871
-26,416
-24,844
-23,155
-21,351
-19,433
-17,407
-15,275
-13,043
-10,716
-8,302
-5,807
-3,241
-0,611
2,073
4,799
7,556
10,332
13,114
15,889
18,645
21,366
24,04
26,654
29,192
31,642
33,989
36,22
38,319
40,274
42,072
43,701
45,152
46,416
47,484
48,351
49,013
49,468
49,713
49,749
49,576
49,193
48,606
47,818
46,834
45,656
44,284
42,724
40,983
39,07
36,997
34,778
32,427
29,964
27,413
24,803
22,158
19,502
16,847
14,212
11,619
9,101
6,7
4,452
2,383
0,521
-1,115
-2,511
-3,663
-4,59
-5,336
-5,933
-6,415
-6,792
-7,037
-7,133
-7,07
-6,855
-6,543
-6,18
-5,781
-5,356
-4,888
-4,336
-3,687
-2,856
-1,657
0,001
2,135
4,613
7,046
9,05
10,398
10,974
10,84
10,363
10,066
10,77
13,699
19,978
30,449
45,323
63,913
84,798
106,096
125,551
140,745
149,434
149,581
140,234
121,997
96,653
66,982
36,194
7,163
-17,481
-35,087
-44,037
-44,223
-36,713
-23,85
-8,431
7,458
22,06
33,524
40,664
43,111
41,152
36,07
29,493
22,382
15,383
9,12
3,881
-0,188
-3,063
-5,169
-7,075
-9,024
-11,103
-13,296
-15,451
-17,512
-19,487
-21,3
-22,866
-24,156
-25,158
-25,92
-26,529
-27,023
-27,416
-27,711
-27,897
-27,982
-27,987
-27,927
-27,819
-27,669
-27,477
-27,238
-26,951
-26,607
-26,197
-25,706
-25,116
-24,414
-23,591
-22,648
-21,585
-20,4
-19,088
-17,644
-16,063
-14,341
-12,472
-10,453
-8,276
-5,936
-3,429
-0,751
2,1
5,126
8,33
11,711
15,271
19,008
22,918
26,996
31,236
35,629
40,164
44,831
49,613
54,497
59,465
64,498
69,576
74,678
79,782
84,866
89,906
94,879
99,758
104,521
109,141
113,593
117,853
121,893
125,69
129,217
132,451
135,37
137,95
140,171
142,015
143,463
144,502
145,117
145,298
145,036
144,326
143,163
141,549
139,484
136,974
134,027
130,652
126,863
122,674
118,102
113,168
107,891
102,295
96,405
90,247
83,848
77,238
70,446
63,504
56,442
49,294
42,091
34,865
27,649
20,474
13,372
6,373
-0,495
-7,203
-13,726
-20,037
-26,116
-31,94
-37,492
-42,754
-47,714
-52,359
-56,679
-60,669
-64,322
-67,636
-70,611
-73,247
-75,55
-77,523
-79,175
-80,514
-81,552
-82,299
-82,771
-82,981
-82,946
-82,684
-82,211
-81,546
-80,709
-79,72
-78,597
-77,361
-76,032
-74,628
-73,168
-71,67
-70,152
-68,63
-67,118
-65,632
-64,185
-62,789
-61,454
-60,19
-59,006
-57,91
-56,906
-55,999
-55,195
-54,494
-53,899
-53,41
-53,028
-52,749
-52,573
-52,495
-52,512
-52,619
-52,81
-53,079
-53,42
-53,825
-54,287
-54,799
-55,353
-55,943
-56,562
-57,202
-57,857
-58,521
-59,189
-59,854
-60,512
-61,159
-61,79
-62,403
-62,994
-63,562
-64,104
-64,62
-65,108
-65,568
-66
-66,404
-66,781
-67,131
-67,458
-67,762
-68,046
-68,313
-68,565
-68,807
-69,041
-69,271
-69,499
-69,728
-69,961
-70,199
-70,445
-70,7
-70,965
-71,24
-71,525
-71,82
-72,123
-72,432
-72,746
-73,06
-73,37
-73,674
-73,965
-74,239
-74,491
-74,714
-74,903
-75,051
-75,152
-75,199
-75,184
-75,099
-74,937
-74,688
-74,346
-73,9
-73,345
-72,671
-71,871
-70,939
-69,869
-68,654
-67,289
-65,77
-64,093
-62,256
-60,257
-58,096
-55,773
-53,291
-50,655
-47,869
-44,939
-41,873
-38,679
-35,365
-31,942
-28,42
-24,81
-21,126
-17,378
-13,582
-9,751
-5,902
-2,051
1,784
5,588
9,343
13,031
16,633
20,133
23,512
26,756
29,846
32,769
35,506
38,045
40,372
42,475
44,344
45,971
47,349
48,476
49,35
49,972
50,348
50,481
50,374
50,029
49,447
48,631
47,586
46,318
44,835
43,149
41,277
39,239
37,062
34,77
32,389
29,941
27,442
24,911
22,371
19,854
17,398
15,047
12,835
10,789
8,933
7,287
5,854
4,631
3,59
2,689
1,894
1,186
0,568
0,052
-0,364
-0,71
-1,047
-1,414
-1,802
-2,165
-2,427
-2,546
-2,524
-2,295
-1,701
-0,635
0,941
2,867
4,738
6,363
7,843
9,346
11,111
13,412
16,423
20,697
27,243
36,494
48,225
61,777
75,939
89,604
102,042
112,051
117,958
118,877
114,673
105,977
94,347
81,008
66,672
52,434
39,652
29,167
21,403
16,078
12,12
8,895
6,212
3,76
1,254
-1,519
-4,741
-8,225
-11,433
-14,088
-16,139
-17,62
-18,7
-19,457
-19,878
-20,039
-20,071
-20,082
-20,145
-20,263
-20,376
-20,457
-20,506
-20,534
-20,562
-20,572
-20,527
-20,389
-20,112
-19,673
-19,065
-18,28
-17,315
-16,172
-14,857
-13,389
-11,799
-10,106
-8,323
-6,454
-4,5
-2,469
-0,373
1,776
3,968
6,195
8,455
10,747
13,07
15,427
17,825
20,275
22,788
25,375
28,045
30,806
33,665
36,63
39,71
42,911
46,24
49,705
53,312
57,069
60,982
65,056
69,296
73,703
78,278
83,021
87,929
92,997
98,217
103,582
109,081
114,7
120,426
126,241
132,126
138,062
144,025
149,992
155,937
161,833
167,651
173,362
178,937
184,345
189,555
194,537
199,26
203,696
207,815
211,589
214,99
217,993
220,572
222,704
224,369
225,547
226,222
226,38
226,008
225,1
223,648
221,651
219,109
216,024
212,402
208,253
203,588
198,42
192,768
186,651
180,092
173,116
165,749
158,022
149,965
141,612
132,996
124,151
115,116
105,925
96,615
87,225
77,791
68,35
58,939
49,594
40,348
31,236
22,29
13,54
5,014
-3,261
-11,261
-18,964
-26,348
-33,397
-40,095
-46,427
-52,384
-57,956
-63,138
-67,925
-72,316
-76,312
-79,917
-83,135
-85,974
-88,443
-90,553
-92,316
-93,746
-94,859
-95,67
-96,198
-96,462
-96,48
-96,272
-95,86
-95,263
-94,503
-93,6
-92,574
-91,445
-90,233
-88,955
-87,632
-86,28
-84,915
-83,555
-82,213
-80,904
-79,641
-78,436
-77,298
-76,238
-75,263
-74,38
-73,596
-72,915
-72,341
-71,877
-71,525
-71,285
-71,157
-71,14
-71,231
-71,428
-71,726
-72,121
-72,607
-73,18
-73,833
-74,56
-75,354
-76,208
-77,117
-78,072
-79,068
-80,096
-81,15
-82,225
-83,313
-84,408
-85,507
-86,603
-87,692
-88,77
-89,834
-90,881
-91,907
-92,912
-93,892
-94,848
-95,777
-96,681
-97,56
-98,413
-99,244
-100,053
-100,844
-101,617
-102,376
-103,125
-103,865
-104,601
-105,335
-106,07
-106,811
-107,56
-108,32
-109,094
-109,884
-110,692
-111,519
-112,367
-113,235
-114,124
-115,031
-115,956
-116,897
-117,85
-118,811
-119,778
-120,745
-121,706
-122,656
-123,588
-124,495
-125,37
-126,206
-126,994
-127,726
-128,393
-128,989
-129,503
-129,927
-130,252
-130,471
-130,576
-130,559
-130,413
-130,132
-129,708
-129,138
-128,417
-127,541
-126,507
-125,314
-123,96
-122,447
-120,777
-118,953
-116,979
-114,864
-112,613
-110,237
-107,746
-105,149
-102,46
-99,69
-96,852
-93,961
-91,032
-88,079
-85,118
-82,166
-79,239
-76,355
-73,53
-70,781
-68,123
-65,572
-63,144
-60,855
-58,717
-56,744
-54,948
-53,34
-51,933
-50,736
-49,757
-49,005
-48,481
-48,19
-48,131
-48,3
-48,693
-49,301
-50,114
-51,123
-52,317
-53,69
-55,233
-56,94
-58,8
-60,8
-62,927
-65,163
-67,488
-69,875
-72,297
-74,727
-77,138
-79,508
-81,823
-84,068
-86,223
-88,262
-90,151
-91,848
-93,323
-94,553
-95,513
-96,193
-96,586
-96,698
-96,563
-96,231
-95,745
-95,138
-94,406
-93,537
-92,536
-91,434
-90,293
-89,155
-88,008
-86,797
-85,465
-83,982
-82,372
-80,603
-78,521
-76,011
-73,03
-69,714
-66,459
-63,464
-60,605
-57,701
-54,526
-50,814
-46,431
-40,9
-33,224
-22,976
-10,363
4,023
19,001
33,462
46,678
57,448
64,116
65,836
62,443
54,474
43,441
30,553
16,571
2,702
-9,699
-19,831
-27,291
-32,392
-36,163
-39,168
-41,581
-43,698
-45,774
-47,991
-50,448
-52,837
-54,609
-55,512
-55,575
-54,98
-53,946
-52,558
-50,84
-48,873
-46,818
-44,83
-42,988
-41,277
-39,665
-38,155
-36,815
-35,767
-35,067
-34,686
-34,545
-34,506
-34,474
-34,407
-34,258
-33,981
-33,542
-32,905
-32,072
-31,083
-29,954
-28,681
-27,236
-25,56
-23,622
-21,426
-18,989
-16,347
-13,529
-10,543
-7,407
-4,143
-0,762
2,732
6,352
10,126
14,072
18,196
22,501
26,979
31,628
36,453
41,455
46,639
52,007
57,561
63,306
69,25
75,393
81,734
88,266
94,978
101,86
108,899
116,084
123,401
130,834
138,368
145,986
153,674
161,411
169,177
176,951
184,708
192,425
200,074
207,63
215,065
222,352
229,464
236,372
243,049
249,468
255,601
261,422
266,904
272,022
276,751
281,067
284,946
288,368
291,313
293,766
295,709
297,132
298,022
298,372
298,176
297,431
296,135
294,291
291,902
288,973
285,515
281,54
277,061
272,094
266,66
260,778
254,472
247,767
240,688
233,264
225,525
217,499
209,221
200,723
192,038
183,202
174,25
165,215
156,133
147,038
137,963
128,941
120,003
111,179
102,498
93,987
85,672
77,577
69,724
62,131
54,818
47,797
41,083
34,685
28,612
22,869
17,46
12,387
7,65
3,247
-0,826
-4,576
-8,009
-11,136
-13,968
-16,519
-18,801
-20,831
-22,626
-24,202
-25,577
-26,77
-27,798
-28,681
-29,438
-30,086
-30,644
-31,129
-31,56
-31,952
-32,321
-32,682
-33,046
-33,427
-33,835
-34,278
-34,765
-35,303
-35,898
-36,554
-37,274
-38,062
-38,919
-39,844
-40,836
-41,893
-43,011
-44,186
-45,412
-46,683
-47,992
-49,332
-50,694
-52,07
-53,451
-54,828
-56,193
-57,535
-58,846
-60,115
-61,335
-62,497
-63,592
-64,614
-65,555
-66,411
-67,176
-67,846
-68,417
-68,887
-69,254
-69,515
-69,672
-69,723
-69,669
-69,512
-69,256
-68,903
-68,458
-67,927
-67,314
-66,628
-65,875
-65,064
-64,201
-63,296
-62,359
-61,398
-60,424
-59,446
-58,476
-57,524
-56,599
-55,713
-54,876
-54,097
-53,384
-52,748
-52,197
-51,737
-51,378
-51,125
-50,985
-50,965
-51,069
-51,302
-51,669
-52,172
-52,813
-53,595
-54,517
-55,579
-56,779
-58,117
-59,589
-61,191
-62,918
-64,767
-66,73
-68,8
-70,971
-73,233
-75,577
-77,995
-80,476
-83,009
-85,585
-88,191
-90,817
-93,452
-96,083
-98,7
-101,291
-103,844
-106,347
-108,788
-111,155
-113,438
-115,626
-117,707
-119,672
-121,511
-123,215
-124,776
-126,186
-127,438
-128,526
-129,445
-130,19
-130,758
-131,146
-131,353
-131,378
-131,222
-130,887
-130,374
-129,687
-128,831
-127,809
-126,627
-125,292
-123,811
-122,191
-120,44
-118,568
-116,585
-114,499
-112,321
-110,063
-107,733
-105,344
-102,906
-100,431
-97,928
-95,409
-92,882
-90,357
-87,844
-85,35
-82,884
-80,451
-78,059
-75,71
-73,411
-71,164
-68,97
-66,831
-64,744
-62,706
-60,716
-58,773
-56,873
-55,011
-53,184
-51,384
-49,604
-47,84
-46,082
-44,32
-42,542
-40,736
-38,892
-37,004
-35,065
-33,07
-31,01
-28,87
-26,638
-24,303
-21,858
-19,297
-16,612
-13,795
-10,845
-7,768
-4,572
-1,275
2,117
5,6
9,173
12,841
16,586
20,37
24,153
27,884
31,54
35,133
38,65
42,067
45,361
48,474
51,411
54,281
57,025
59,445
61,368
62,555
62,999
63,039
62,797
62,143
61,256
60,489
60,248
61,212
63,393
65,976
68,522
70,926
72,808
73,801
73,342
70,408
64,923
57,877
49,883
41,311
32,593
23,9
15,685
8,869
3,599
-0,781
-4,692
-8,478
-12,365
-16,239
-20,212
-24,682
-29,689
-34,952
-40,26
-45,377
-50,195
-54,813
-59,232
-63,357
-67,161
-70,649
-73,83
-76,748
-79,403
-81,74
-83,728
-85,344
-86,578
-87,444
-87,95
-88,097
-87,889
-87,331
-86,427
-85,188
-83,625
-81,749
-79,571
-77,104
-74,359
-71,354
-68,103
-64,624
-60,931
-57,031
-52,934
-48,647
-44,179
-39,542
-34,742
-29,787
-24,683
-19,436
-14,049
-8,529
-2,876
2,906
8,819
14,863
21,038
27,344
33,784
40,358
47,069
53,918
60,905
68,031
75,296
82,698
90,237
97,91
105,712
113,639
121,684
129,84
138,097
146,445
154,872
163,364
171,905
180,479
189,067
197,65
206,205
214,711
223,143
231,476
239,683
247,736
255,608
263,268
270,686
277,833
284,678
291,192
297,345
303,11
308,458
313,365
317,805
321,756
325,196
328,107
330,471
332,274
333,502
334,145
334,196
333,65
332,505
330,76
328,418
325,486
321,97
317,883
313,238
308,051
302,342
296,132
289,444
282,307
274,749
266,802
258,497
249,869
240,954
231,789
222,409
212,854
203,16
193,364
183,505
173,618
163,739
153,903
144,144
134,494
124,985
115,646
106,505
97,587
88,918
80,52
72,412
64,615
57,143
50,011
43,23
36,811
30,76
25,081
19,776
14,844
10,281
6,084
2,242
-1,252
-4,411
-7,248
-9,777
-12,013
-13,975
-15,678
-17,141
-18,383
-19,423
-20,278
-20,969
-21,514
-21,931
-22,239
-22,456
-22,598
-22,683
-22,727
-22,746
-22,755
-22,769
-22,8
-22,861
-22,963
-23,118
-23,332
-23,615
-23,971
-24,405
-24,921
-25,519
-26,201
-26,965
-27,81
-28,733
-29,73
-30,796
-31,927
-33,117
-34,36
-35,649
-36,979
-38,344
-39,736
-41,15
-42,579
-44,018
-45,461
-46,902
-48,335
-49,755
-51,157
-52,535
-53,884
-55,2
-56,477
-57,713
-58,904
-60,048
-61,141
-62,183
-63,173
-64,111
-64,998
-65,836
-66,626
-67,371
-68,073
-68,737
-69,366
-69,964
-70,536
-71,084
-71,613
-72,127
-72,629
-73,124
-73,613
-74,1
-74,587
-75,077
-75,572
-76,073
-76,583
-77,104
-77,638
-78,185
-78,747
-79,326
-79,923
-80,538
-81,17
-81,821
-82,488
-83,171
-83,869
-84,578
-85,295
-86,019
-86,744
-87,467
-88,184
-88,89
-89,579
-90,247
-90,888
-91,497
-92,068
-92,596
-93,077
-93,504
-93,874
-94,18
-94,42
-94,588
-94,678
-94,688
-94,611
-94,444
-94,18
-93,816
-93,346
-92,766
-92,073
-91,261
-90,329
-89,273
-88,09
-86,779
-85,339
-83,768
-82,066
-80,234
-78,273
-76,185
-73,973
-71,641
-69,194
-66,638
-63,98
-61,226
-58,385
-55,466
-52,475
-49,423
-46,318
-43,171
-39,994
-36,797
-33,594
-30,397
-27,221
-24,08
-20,989
-17,962
-15,016
-12,164
-9,421
-6,802
-4,321
-1,994
0,165
2,143
3,926
5,502
6,861
7,992
8,89
9,548
9,964
10,138
10,07
9,76
9,209
8,42
7,397
6,146
4,673
2,983
1,081
-1,025
-3,327
-5,813
-8,469
-11,28
-14,23
-17,299
-20,463
-23,688
-26,94
-30,193
-33,419
-36,597
-39,703
-42,696
-45,541
-48,205
-50,661
-52,884
-54,858
-56,561
-57,982
-59,137
-60,055
-60,782
-61,369
-61,843
-62,209
-62,456
-62,578
-62,59
-62,522
-62,398
-62,217
-61,969
-61,614
-61,12
-60,466
-59,574
-58,291
-56,386
-53,688
-50,212
-46,23
-42,184
-38,429
-35,191
-32,579
-30,692
-29,419
-28,172
-25,904
-21,148
-12,6
0,504
18,329
40,091
63,938
87,552
108,035
123,363
133,547
136,298
128,633
107,275
66,273
9,435
-51,199
-103,693
-132,216
-133,021
-117,092
-94,035
-75,679
-67,403
-62,735
-58,078
-51,907
-44,19
-39,092
-38,43
-41,021
-45,271
-49,59
-53,12
-55,676
-57,246
-57,664
-56,879
-55,333
-53,654
-52,159
-51,016
-50,28
-49,811
-49,584
-49,583
-49,615
-49,532
-49,262
-48,744
-47,991
-47,051
-45,927
-44,635
-43,221
-41,692
-40,055
-38,308
-36,42
-34,39
-32,233
-29,969
-27,633
-25,247
-22,818
-20,359
-17,882
-15,388
-12,876
-10,334
-7,734
-5,065
-2,322
0,502
3,406
6,396
9,484
12,679
15,992
19,433
23,014
26,748
30,651
34,735
39,007
43,474
48,137
53
58,065
63,333
68,804
74,476
80,344
86,405
92,653
99,079
105,672
112,418
119,3
126,3
133,396
140,566
147,786
155,03
162,27
169,478
176,625
183,68
190,613
197,392
203,985
210,36
216,486
222,329
227,858
233,043
237,853
242,26
246,235
249,754
252,791
255,324
257,333
258,8
259,71
260,049
259,806
258,973
257,547
255,525
252,909
249,705
245,92
241,566
236,658
231,212
225,248
218,791
211,864
204,495
196,714
188,553
180,044
171,223
162,126
152,788
143,25
133,547
123,721
113,808
103,848
93,88
83,942
74,072
64,305
54,679
45,228
35,984
26,978
18,241
9,8
1,68
-6,096
-13,507
-20,535
-27,165
-33,383
-39,18
-44,547
-49,48
-53,976
-58,034
-61,657
-64,85
-67,618
-69,969
-71,913
-73,462
-74,629
-75,427
-75,872
-75,981
-75,771
-75,261
-74,47
-73,419
-72,127
-70,616
-68,907
-67,021
-64,98
-62,804
-60,516
-58,135
-55,682
-53,178
-50,64
-48,086
-45,535
-43,002
-40,502
-38,048
-35,654
-33,33
-31,088
-28,937
-26,886
-24,942
-23,113
-21,404
-19,821
-18,369
-17,051
-15,871
-14,831
-13,933
-13,178
-12,566
-12,097
-11,771
-11,587
-11,541
-11,633
-11,858
-12,214
-12,695
-13,298
-14,017
-14,846
-15,782
-16,817
-17,948
-19,168
-20,473
-21,857
-23,316
-24,844
-26,436
-28,089
-29,797
-31,554
-33,358
-35,201
-37,082
-38,994
-40,933
-42,896
-44,878
-46,876
-48,885
-50,901
-52,92
-54,94
-56,957
-58,969
-60,972
-62,966
-64,949
-66,92
-68,879
-70,825
-72,759
-74,68
-76,588
-78,484
-80,367
-82,238
-84,098
-85,946
-87,783
-89,609
-91,425
-93,23
-95,025
-96,809
-98,581
-100,34
-102,086
-103,816
-105,529
-107,223
-108,898
-110,55
-112,179
-113,781
-115,355
-116,897
-118,403
-119,87
-121,293
-122,667
-123,987
-125,248
-126,445
-127,571
-128,621
-129,59
-130,473
-131,262
-131,953
-132,539
-133,014
-133,373
-133,611
-133,724
-133,709
-133,563
-133,285
-132,874
-132,332
-131,658
-130,853
-129,92
-128,859
-127,674
-126,368
-124,944
-123,409
-121,766
-120,024
-118,19
-116,271
-114,277
-112,217
-110,099
-107,932
-105,727
-103,494
-101,242
-98,983
-96,729
-94,49
-92,279
-90,107
-87,986
-85,925
-83,932
-82,017
-80,182
-78,433
-76,772
-75,203
-73,728
-72,349
-71,066
-69,879
-68,789
-67,801
-66,918
-66,144
-65,474
-64,903
-64,426
-64,035
-63,723
-63,478
-63,28
-63,108
-62,944
-62,781
-62,615
-62,438
-62,23
-61,955
-61,585
-61,097
-60,48
-59,727
-58,827
-57,768
-56,56
-55,242
-53,87
-52,505
-51,185
-49,905
-48,646
-47,399
-46,177
-45,013
-43,949
-42,975
-42,056
-41,161
-40,243
-39,269
-38,224
-36,977
-35,31
-33,095
-30,291
-27,044
-23,758
-20,762
-18,085
-15,696
-13,502
-11,2
-8,549
-5,003
0,597
9,302
21,527
37,025
54,709
72,827
89,919
104,456
114,291
117,363
112,117
98,184
76,948
51,062
23,041
-4,933
-30,619
-51,833
-66,347
-72,976
-72,271
-66,115
-56,762
-45,933
-34,817
-24,545
-16,527
-11,679
-10,066
-10,938
-12,922
-15,09
-17,084
-18,593
-19,285
-18,946
-17,492
-15,183
-12,647
-10,269
-8,198
-6,546
-5,269
-4,324
-3,706
-3,272
-2,844
-2,334
-1,678
-0,857
0,083
1,133
2,284
3,494
4,766
6,107
7,53
9,08
10,771
12,596
14,541
16,579
18,689
20,867
23,101
25,377
27,699
30,075
32,523
35,072
37,738
40,527
43,446
46,496
49,683
53,017
56,506
60,159
63,987
67,998
72,205
76,62
81,252
86,105
91,178
96,47
101,977
107,695
113,619
119,741
126,052
132,543
139,203
146,022
152,985
160,077
167,281
174,576
181,942
189,357
196,797
204,237
211,65
219,012
226,294
233,47
240,512
247,392
254,081
260,553
266,777
272,728
278,375
283,694
288,656
293,239
297,417
301,171
304,48
307,326
309,694
311,569
312,94
313,798
314,134
313,941
313,218
311,962
310,174
307,859
305,022
301,672
297,818
293,475
288,657
283,382
277,668
271,537
265,01
258,113
250,87
243,31
235,461
227,352
219,014
210,477
201,774
192,936
183,994
174,979
165,923
156,855
147,804
138,8
129,87
121,04
112,336
103,782
95,401
87,214
79,242
71,502
64,01
56,781
49,826
43,157
36,782
30,708
24,939
19,478
14,327
9,484
4,947
0,711
-3,228
-6,88
-10,253
-13,357
-16,203
-18,804
-21,172
-23,321
-25,265
-27,018
-28,596
-30,012
-31,282
-32,421
-33,444
-34,366
-35,201
-35,964
-36,67
-37,33
-37,957
-38,564
-39,162
-39,759
-40,366
-40,992
-41,642
-42,325
-43,045
-43,807
-44,615
-45,471
-46,378
-47,336
-48,345
-49,405
-50,514
-51,67
-52,872
-54,116
-55,401
-56,723
-58,08
-59,468
-60,884
-62,325
-63,788
-65,269
-66,765
-68,273
-69,79
-71,312
-72,838
-74,364
-75,89
-77,412
-78,931
-80,445
-81,952
-83,452
-84,945
-86,431
-87,91
-89,382
-90,849
-92,31
-93,768
-95,224
-96,678
-98,132
-99,587
-101,042
-102,499
-103,957
-105,414
-106,869
-108,32
-109,764
-111,199
-112,621
-114,026
-115,41
-116,768
-118,095
-119,385
-120,633
-121,83
-122,972
-124,05
-125,058
-125,989
-126,834
-127,588
-128,243
-128,793
-129,228
-129,544
-129,734
-129,789
-129,705
-129,476
-129,095
-128,56
-127,867
-127,013
-125,997
-124,819
-123,481
-121,986
-120,337
-118,539
-116,6
-114,527
-112,328
-110,013
-107,595
-105,085
-102,496
-99,844
-97,142
-94,407
-91,655
-88,901
-86,163
-83,456
-80,798
-78,206
-75,695
-73,283
-70,988
-68,824
-66,808
-64,954
-63,277
-61,788
-60,502
-59,428
-58,575
-57,951
-57,561
-57,411
-57,505
-57,844
-58,426
-59,245
-60,296
-61,573
-63,069
-64,777
-66,687
-68,784
-71,057
-73,491
-76,073
-78,789
-81,618
-84,533
-87,511
-90,528
-93,565
-96,609
-99,642
-102,635
-105,562
-108,392
-111,101
-113,671
-116,08
-118,301
-120,308
-122,081
-123,612
-124,915
-126,001
-126,879
-127,543
-127,971
-128,165
-128,143
-127,948
-127,645
-127,268
-126,816
-126,286
-125,659
-124,955
-124,248
-123,532
-122,709
-121,743
-120,647
-119,625
-119,132
-119,385
-120,284
-121,64
-123,151
-124,526
-125,625
-125,818
-123,867
-118,947
-110,83
-99,953
-87,605
-74,982
-62,722
-51,99
-44,663
-42,299
-45,94
-55,333
-68,513
-83,459
-98,997
-113,799
-126,193
-134,542
-137,263
-134,106
-126,717
-117,082
-106,481
-95,881
-86,091
-78,015
-72,878
-71,158
-72,071
-74,392
-77,217
-80,056
-82,772
-85,216
-86,916
-87,557
-87,282
-86,5
-85,585
-84,696
-83,775
-82,697
-81,47
-80,159
-78,789
-77,319
-75,685
-73,851
-71,837
-69,706
-67,51
-65,272
-62,999
-60,684
-58,329
-55,949
-53,56
-51,175
-48,8
-46,434
-44,07
-41,704
-39,335
-36,96
-34,574
-32,169
-29,732
-27,256
-24,739
-22,18
-19,577
-16,927
-14,22
-11,447
-8,601
-5,674
-2,659
0,455
3,676
7,013
10,475
14,068
17,798
21,671
25,692
29,867
34,198
38,687
43,334
48,137
53,093
58,197
63,442
68,821
74,323
79,937
85,65
91,449
97,317
103,239
109,197
115,173
121,146
127,096
133
138,836
144,578
150,204
155,686
160,999
166,116
171,013
175,661
180,037
184,115
187,872
191,284
194,331
196,991
199,248
201,084
202,485
203,44
203,937
203,97
203,533
202,624
201,241
199,387
197,065
194,282
191,044
187,364
183,253
178,726
173,8
168,495
162,832
156,834
150,526
143,937
137,094
130,027
122,768
115,348
107,799
100,156
92,45
84,716
76,986
69,292
61,667
54,141
46,745
39,505
32,449
25,601
18,984
12,619
6,526
0,723
-4,775
-9,954
-14,8
-19,305
-23,459
-27,256
-30,692
-33,769
-36,49
-38,857
-40,876
-42,552
-43,892
-44,907
-45,609
-46,011
-46,126
-45,97
-45,56
-44,92
-44,071
-43,036
-41,834
-40,479
-38,985
-37,371
-35,661
-33,882
-32,056
-30,205
-28,349
-26,509
-24,706
-22,96
-21,281
-19,672
-18,13
-16,659
-15,264
-13,965
-12,784
-11,725
-10,774
-9,894
-9,039
-8,188
-7,349
-6,545
-5,781
-5,043
-4,293
-3,548
-2,903
-2,374
-1,842
-1,037
0,336
2,356
4,793
7,358
9,972
12,51
14,642
15,709
14,889
11,869
7,106
1,425
-4,638
-10,693
-16,244
-20,44
-22,124
-20,731
-16,722
-11,182
-4,96
1,426
7,565
12,87
16,42
17,659
16,833
14,75
12,114
9,303
6,481
3,787
1,583
0,163
-0,528
-0,817
-1,021
-1,294
-1,637
-1,968
-2,289
-2,649
-3,047
-3,431
-3,734
-3,914
-3,979
-3,968
-3,913
-3,816
-3,667
-3,444
-3,13
-2,721
-2,209
-1,589
-0,853
0,007
1,001
2,136
3,416
4,849
6,441
8,199
10,13
12,236
14,513
16,952
19,542
22,275
25,14
28,128
31,228
34,428
37,716
41,078
44,502
47,975
51,48
55,002
58,524
62,027
65,495
68,909
72,253
75,509
78,662
81,692
84,584
87,321
89,888
92,269
94,448
96,41
98,142
99,632
100,873
101,856
102,577
103,034
103,229
103,164
102,845
102,277
101,468
100,423
99,15
97,659
95,961
94,063
91,974
89,704
87,263
84,668
81,937
79,087
76,137
73,109
70,026
66,918
63,814
60,736
57,704
54,741
51,875
49,146
46,59
44,237
42,117
40,251
38,654
37,337
36,289
35,477
34,866
34,414
34,09
33,886
33,797
33,824
33,97
34,222
34,568
34,995
35,476
35,993
36,558
37,208
38,041
39,17
40,706
42,815
45,549
48,842
52,553
56,356
59,897
62,995
65,511
67,321
68,768
70,438
72,989
77,504
84,819
95,244
108,965
125,692
144,085
162,403
178,767
190,687
196,254
194,264
183,589
164,173
137,546
105,87
71,713
38,348
8,321
-16,357
-33,469
-42,016
-42,574
-36,414
-25,501
-12,409
1,04
13,344
22,644
27,932
29,136
26,639
21,526
15,2
8,4
1,606
-4,52
-9,704
-13,888
-17,124
-19,886
-22,718
-25,78
-29,051
-32,474
-35,889
-39,23
-42,499
-45,575
-48,336
-50,738
-52,782
-54,532
-56,076
-57,433
-58,577
-59,474
-60,104
-60,484
-60,66
-60,666
-60,519
-60,229
-59,801
-59,251
-58,589
-57,806
-56,877
-55,77
-54,462
-52,944
-51,217
-49,288
-47,158
-44,826
-42,285
-39,535
-36,574
-33,401
-30,012
-26,401
-22,565
-18,508
-14,238
-9,764
-5,094
-0,237
4,798
10
15,356
20,854
26,482
32,225
38,067
43,991
49,976
56,002
62,047
68,088
74,1
80,058
85,936
91,709
97,351
102,836
108,138
113,23
118,089
122,687
127,002
131,008
134,682
138,001
140,944
143,492
145,627
147,333
148,595
149,402
149,745
149,615
149,007
147,918
146,345
144,288
141,751
138,737
135,254
131,312
126,92
122,092
116,845
111,194
105,159
98,759
92,017
84,957
77,601
69,978
62,113
54,036
45,774
37,359
28,819
20,186
11,488
2,755
-5,984
-14,701
-23,369
-31,963
-40,457
-48,827
-57,051
-65,107
-72,976
-80,639
-88,079
-95,281
-102,23
-108,915
-115,325
-121,451
-127,284
-132,819
-138,05
-142,973
-147,588
-151,893
-155,89
-159,582
-162,972
-166,067
-168,874
-171,401
-173,657
-175,651
-177,395
-178,9
-180,176
-181,235
-182,089
-182,749
-183,228
-183,537
-183,688
-183,691
-183,557
-183,298
-182,923
-182,441
-181,862
-181,195
-180,447
-179,628
-178,743
-177,802
-176,811
-175,777
-174,705
-173,601
-172,47
-171,316
-170,144
-168,954
-167,75
-166,534
-165,306
-164,069
-162,824
-161,57
-160,309
-159,041
-157,767
-156,487
-155,2
-153,907
-152,608
-151,301
-149,989
-148,674
-147,355
-146,035
-144,716
-143,398
-142,082
-140,772
-139,466
-138,165
-136,868
-135,572
-134,28
-132,994
-131,714
-130,444
-129,179
-127,914
-126,649
-125,379
-124,102
-122,815
-121,513
-120,19
-118,846
-117,48
-116,093
-114,688
-113,257
-111,795
-110,291
-108,73
-107,123
-105,474
-103,791
-102,089
-100,348
-98,547
-96,688
-94,764
-92,774
-90,744
-88,611
-86,301
-83,918
-81,525
-79,203
-77,082
-75,014
-72,797
-70,503
-68,175
-65,582
-62,606
-58,958
-54,265
-48,904
-43,311
-37,491
-31,563
-25,806
-20,327
-15,611
-12,217
-9,685
-7,54
-5,704
-3,936
-2,105
-0,229
2,108
5,346
9,124
13,104
17,154
21,009
24,659
28,172
31,317
33,881
35,995
37,757
39,239
40,572
41,705
42,573
43,221
43,668
43,89
43,882
43,619
43,073
42,271
41,242
40,003
38,586
37,008
35,292
33,46
31,53
29,506
27,384
25,186
22,954
20,741
18,618
16,617
14,726
12,954
11,314
9,819
8,509
7,338
6,143
4,932
3,855
3,064
2,802
3,059
3,478
3,921
4,489
5,004
5,148
4,529
2,484
-0,986
-5,048
-9,199
-13,22
-16,603
-18,875
-19,431
-17,243
-12,237
-5,41
2,714
11,817
21,26
30,645
39,284
46,005
50,777
54,374
56,914
58,51
59,548
60,067
60,768
62,693
65,386
67,985
70,168
71,214
70,463
67,565
61,134
49,856
34,3
15,354
-5,983
-27,853
-48,895
-67,911
-82,611
-91,237
-93,725
-90,415
-82,392
-71,651
-59,456
-46,977
-36,094
-28,044
-23,13
-21,371
-22,014
-23,813
-26,182
-28,683
-30,681
-31,946
-32,447
-32,2
-31,608
-31,167
-31,028
-31,203
-31,645
-32,193
-32,775
-33,372
-33,888
-34,232
-34,373
-34,315
-34,107
-33,797
-33,38
-32,827
-32,11
-31,218
-30,167
-28,994
-27,744
-26,456
-25,159
-23,871
-22,599
-21,338
-20,073
-18,782
-17,43
-15,995
-14,464
-12,832
-11,099
-9,264
-7,318
-5,251
-3,048
-0,69
1,839
4,555
7,473
10,603
13,951
17,523
21,315
25,326
29,555
34
38,659
43,532
48,614
53,9
59,383
65,055
70,903
76,912
83,066
89,344
95,727
102,19
108,712
115,267
121,83
128,375
134,874
141,299
147,622
153,812
159,84
165,675
171,285
176,639
181,709
186,465
190,879
194,924
198,577
201,813
204,611
206,952
208,819
210,195
211,067
211,425
211,26
210,566
209,342
207,589
205,309
202,509
199,199
195,391
191,098
186,338
181,128
175,49
169,447
163,025
156,25
149,152
141,762
134,112
126,236
118,168
109,943
101,595
93,159
84,67
76,162
67,669
59,222
50,855
42,597
34,478
26,524
18,762
11,215
3,904
-3,152
-9,937
-16,435
-22,634
-28,524
-34,097
-39,345
-44,265
-48,855
-53,113
-57,041
-60,642
-63,922
-66,888
-69,547
-71,912
-73,991
-75,798
-77,346
-78,648
-79,719
-80,573
-81,224
-81,688
-81,98
-82,114
-82,103
-81,962
-81,702
-81,336
-80,874
-80,325
-79,698
-79
-78,238
-77,419
-76,546
-75,625
-74,658
-73,65
-72,603
-71,518
-70,398
-69,243
-68,054
-66,83
-65,572
-64,278
-62,949
-61,582
-60,179
-58,737
-57,256
-55,735
-54,176
-52,577
-50,939
-49,264
-47,554
-45,812
-44,04
-42,244
-40,428
-38,599
-36,763
-34,927
-33,099
-31,287
-29,498
-27,743
-26,027
-24,36
-22,749
-21,202
-19,725
-18,326
-17,009
-15,781
-14,646
-13,608
-12,671
-11,837
-11,109
-10,488
-9,974
-9,568
-9,268
-9,073
-8,98
-8,985
-9,084
-9,27
-9,538
-9,878
-10,284
-10,746
-11,254
-11,797
-12,364
-12,945
-13,528
-14,1
-14,65
-15,169
-15,644
-16,067
-16,429
-16,722
-16,941
-17,08
-17,136
-17,105
-16,986
-16,777
-16,478
-16,09
-15,614
-15,053
-14,411
-13,693
-12,904
-12,053
-11,147
-10,195
-9,208
-8,195
-7,168
-6,138
-5,117
-4,117
-3,151
-2,23
-1,37
-0,585
0,114
0,715
1,206
1,579
1,828
1,947
1,935
1,792
1,52
1,121
0,597
-0,048
-0,809
-1,683
-2,663
-3,74
-4,907
-6,153
-7,467
-8,834
-10,238
-11,659
-13,079
-14,477
-15,831
-17,119
-18,317
-19,398
-20,336
-21,102
-21,665
-21,999
-22,077
-21,876
-21,371
-20,546
-19,394
-17,927
-16,167
-14,139
-11,864
-9,366
-6,674
-3,821
-0,832
2,271
5,487
8,828
12,306
15,923
19,656
23,492
27,477
31,692
36,262
41,303
46,848
52,962
59,795
67,414
75,815
84,864
94,133
103,209
111,977
120,339
128,292
136,135
144,033
152,37
162,121
174,051
188,431
205,192
223,404
241,461
258,061
271,537
279,707
280,878
273,711
257,641
233,859
204,536
171,849
138,565
107,496
80,921
61,241
49,999
46,97
51,061
60,667
73,531
87,833
102,132
114,628
124,125
130,383
133,605
134,611
134,634
134,349
134,165
134,649
136,019
138,257
141,236
144,462
147,339
149,611
151,197
152,06
152,332
152,118
151,509
150,719
149,938
149,26
148,729
148,331
148,021
147,802
147,706
147,748
147,949
148,311
148,826
149,493
150,294
151,197
152,155
153,112
154,033
154,904
155,725
156,506
157,258
157,991
158,716
159,45
160,202
160,978
161,786
162,627
163,512
164,455
165,473
166,585
167,806
169,149
170,623
172,236
173,99
175,889
177,929
180,104
182,411
184,844
187,4
190,071
192,85
195,725
198,686
201,718
204,806
207,93
211,069
214,199
217,296
220,334
223,288
226,13
228,832
231,367
233,706
235,82
237,683
239,265
240,538
241,476
242,05
242,236
242,007
241,343
240,219
238,619
236,523
233,918
230,79
227,13
222,929
218,182
212,889
207,049
200,666
193,747
186,302
178,346
169,894
160,967
151,588
141,78
131,572
120,993
110,075
98,852
87,359
75,632
63,709
51,629
39,431
27,155
14,842
2,531
-9,736
-21,921
-33,985
-45,888
-57,594
-69,067
-80,273
-91,179
-101,756
-111,975
-121,81
-131,237
-140,237
-148,792
-156,886
-164,507
-171,646
-178,297
-184,457
-190,124
-195,301
-199,993
-204,205
-207,949
-211,234
-214,074
-216,485
-218,483
-220,085
-221,313
-222,185
-222,725
-222,954
-222,895
-222,573
-222,012
-221,236
-220,268
-219,134
-217,856
-216,457
-214,961
-213,388
-211,759
-210,093
-208,408
-206,722
-205,049
-203,403
-201,796
-200,24
-198,742
-197,311
-195,952
-194,67
-193,467
-192,347
-191,308
-190,353
-189,478
-188,681
-187,961
-187,311
-186,727
-186,205
-185,736
-185,314
-184,932
-184,581
-184,254
-183,942
-183,637
-183,329
-183,011
-182,673
-182,307
-181,903
-181,454
-180,951
-180,387
-179,753
-179,044
-178,253
-177,376
-176,406
-175,34
-174,174
-172,905
-171,529
-170,044
-168,447
-166,736
-164,909
-162,965
-160,905
-158,727
-156,432
-154,023
-151,5
-148,868
-146,127
-143,282
-140,336
-137,291
-134,153
-130,927
-127,617
-124,23
-120,771
-117,248
-113,668
-110,041
-106,374
-102,675
-98,953
-95,214
-91,468
-87,722
-83,984
-80,262
-76,565
-72,903
-69,284
-65,719
-62,218
-58,789
-55,441
-52,181
-49,017
-45,953
-42,991
-40,135
-37,389
-34,755
-32,236
-29,835
-27,555
-25,4
-23,375
-21,482
-19,722
-18,091
-16,583
-15,194
-13,919
-12,751
-11,679
-10,693
-9,782
-8,945
-8,181
-7,484
-6,846
-6,247
-5,661
-5,073
-4,474
-3,858
-3,215
-2,536
-1,818
-1,085
-0,377
0,265
0,807
1,239
1,576
1,818
1,959
1,995
1,917
1,741
1,512
1,259
0,986
0,7
0,409
0,163
0,1
0,373
1,105
2,374
4,185
6,513
9,393
12,921
17,036
21,489
25,964
30,113
33,827
37,294
40,547
43,274
45,329
46,889
48,28
50,185
52,888
55,751
58,189
60,044
60,872
59,932
56,363
48,633
35,662
17,918
-3,747
-28,468
-54,807
-81,025
-105,383
-125,503
-139,248
-146,011
-145,95
-139,673
-128,562
-114,324
-98,436
-82,64
-68,736
-57,6
-49,505
-44,368
-41,461
-39,836
-38,963
-38,39
-37,589
-36,409
-34,838
-32,898
-30,944
-29,394
-28,358
-27,839
-27,784
-27,99
-28,35
-28,832
-29,31
-29,674
-29,869
-29,831
-29,561
-29,113
-28,493
-27,699
-26,73
-25,573
-24,254
-22,834
-21,369
-19,918
-18,517
-17,178
-15,908
-14,71
-13,578
-12,503
-11,466
-10,436
-9,398
-8,344
-7,272
-6,185
-5,075
-3,926
-2,722
-1,446
-0,084
1,372
2,933
4,606
6,398
8,309
10,337
12,475
14,723
17,08
19,547
22,124
24,81
27,604
30,502
33,501
36,598
39,783
43,047
46,38
49,769
53,202
56,665
60,144
63,625
67,091
70,529
73,922
77,254
80,509
83,671
86,722
89,645
92,424
95,042
97,482
99,727
101,762
103,572
105,142
106,459
107,509
108,278
108,756
108,932
108,794
108,336
107,548
106,425
104,963
103,16
101,016
98,531
95,709
92,556
89,076
85,28
81,177
76,777
72,093
67,139
61,93
56,482
50,812
44,939
38,882
32,661
26,297
19,811
13,226
6,564
-0,152
-6,9
-13,656
-20,398
-27,103
-33,749
-40,315
-46,779
-53,121
-59,321
-65,362
-71,226
-76,898
-82,363
-87,61
-92,626
-97,402
-101,931
-106,206
-110,221
-113,974
-117,461
-120,682
-123,638
-126,329
-128,76
-130,933
-132,856
-134,534
-135,975
-137,188
-138,182
-138,969
-139,559
-139,964
-140,197
-140,269
-140,196
-139,989
-139,663
-139,232
-138,709
-138,108
-137,442
-136,723
-135,965
-135,178
-134,374
-133,563
-132,755
-131,959
-131,184
-130,437
-129,726
-129,057
-128,437
-127,871
-127,363
-126,918
-126,54
-126,23
-125,991
-125,824
-125,73
-125,708
-125,758
-125,877
-126,064
-126,315
-126,628
-126,999
-127,422
-127,894
-128,408
-128,959
-129,541
-130,146
-130,769
-131,402
-132,038
-132,67
-133,29
-133,892
-134,469
-135,012
-135,515
-135,97
-136,371
-136,709
-136,977
-137,168
-137,275
-137,291
-137,21
-137,027
-136,738
-136,339
-135,827
-135,199
-134,455
-133,593
-132,612
-131,513
-130,298
-128,967
-127,525
-125,975
-124,321
-122,57
-120,729
-118,807
-116,812
-114,753
-112,639
-110,48
-108,288
-106,074
-103,847
-101,619
-99,404
-97,213
-95,061
-92,962
-90,927
-88,971
-87,105
-85,34
-83,687
-82,152
-80,742
-79,464
-78,323
-77,324
-76,473
-75,774
-75,231
-74,85
-74,635
-74,587
-74,706
-74,988
-75,424
-76,006
-76,724
-77,565
-78,516
-79,56
-80,682
-81,874
-83,125
-84,425
-85,758
-87,098
-88,422
-89,715
-90,966
-92,164
-93,306
-94,387
-95,412
-96,409
-97,408
-98,437
-99,522
-100,66
-101,839
-103,055
-104,301
-105,574
-106,861
-108,119
-109,296
-110,358
-111,27
-111,995
-112,474
-112,597
-112,256
-111,361
-109,834
-107,64
-104,761
-101,187
-96,934
-92,047
-86,602
-80,725
-74,554
-68,222
-61,891
-55,721
-49,898
-44,654
-40,162
-36,625
-34,319
-33,33
-33,611
-35,116
-37,682
-41,291
-46,189
-52,334
-59,393
-67,381
-76,474
-86,87
-98,993
-112,554
-126,476
-140,111
-153,176
-165,082
-175,224
-182,82
-186,681
-186,708
-183,959
-179,126
-172,693
-165,215
-156,998
-148,69
-141,455
-135,601
-130,579
-126,063
-121,767
-117,567
-113,726
-110,228
-106,72
-103,184
-99,874
-96,961
-94,637
-92,925
-91,608
-90,55
-89,691
-88,939
-88,221
-87,467
-86,592
-85,543
-84,303
-82,858
-81,213
-79,364
-77,296
-74,999
-72,466
-69,714
-66,785
-63,726
-60,587
-57,397
-54,165
-50,897
-47,596
-44,259
-40,887
-37,466
-33,974
-30,399
-26,739
-22,991
-19,159
-15,234
-11,201
-7,044
-2,75
1,693
6,291
11,051
15,979
21,078
26,344
31,773
37,355
43,085
48,957
54,968
61,109
67,375
73,754
80,236
86,812
93,468
100,188
106,955
113,753
120,563
127,367
134,145
140,877
147,544
154,125
160,599
166,946
173,144
179,171
185,004
190,621
196,001
201,123
205,965
210,509
214,734
218,624
222,162
225,332
228,12
230,514
232,502
234,074
235,223
235,942
236,228
236,079
235,494
234,476
233,029
231,158
228,872
226,178
223,089
219,618
215,778
211,585
207,057
202,214
197,075
191,664
186,002
180,114
174,026
167,763
161,35
154,816
148,188
141,492
134,756
128,008
121,275
114,582
107,957
101,423
95,004
88,724
82,602
76,659
70,914
65,383
60,083
55,027
50,229
45,7
41,45
37,486
33,816
30,445
27,375
24,609
22,145
19,983
18,12
16,551
15,271
14,272
13,546
13,085
12,876
12,908
13,169
13,645
14,322
15,186
16,222
17,415
18,75
20,213
21,789
23,464
25,223
27,053
28,94
30,871
32,834
34,817
36,808
38,797
40,773
42,728
44,654
46,541
48,385
50,178
51,915
53,592
55,205
56,752
58,23
59,641
60,983
62,257
63,467
64,616
65,705
66,74
67,725
68,665
69,566
70,433
71,274
72,093
72,898
73,696
74,494
75,297
76,113
76,947
77,807
78,696
79,623
80,591
81,607
82,675
83,8
84,987
86,24
87,56
88,951
90,414
91,948
93,554
95,231
96,975
98,783
100,653
102,581
104,56
106,587
108,654
110,753
112,877
115,017
117,163
119,305
121,434
123,54
125,614
127,645
129,626
131,548
133,402
135,179
136,87
138,466
139,958
141,337
142,596
143,727
144,723
145,58
146,295
146,867
147,294
147,576
147,717
147,719
147,583
147,314
146,914
146,386
145,736
144,972
144,099
143,128
142,07
140,938
139,75
138,521
137,262
135,988
134,707
133,427
132,159
130,909
129,683
128,491
127,347
126,269
125,287
124,421
123,676
123,048
122,523
122,083
121,718
121,403
121,106
120,812
120,513
120,225
119,986
119,812
119,702
119,638
119,577
119,49
119,381
119,259
119,146
119,071
119,065
119,197
119,571
120,257
121,269
122,553
124,005
125,556
127,175
128,854
130,573
132,257
133,822
135,201
136,344
137,235
137,768
137,684
136,818
135,169
132,812
129,986
126,784
122,961
118,473
113,529
108,042
101,806
94,548
85,706
75,358
64,386
53,332
42,48
32,461
23,878
17,446
14,241
14,292
16,581
20,476
25,549
31,259
37,286
43,042
47,534
50,619
52,949
54,895
56,716
58,512
60,047
61,374
62,877
64,593
66,258
67,7
68,748
69,416
69,956
70,479
70,961
71,411
71,85
72,32
72,915
73,677
74,591
75,655
76,862
78,22
79,76
81,484
83,371
85,38
87,446
89,528
91,609
93,681
95,746
97,808
99,866
101,932
104,026
106,164
108,361
110,621
112,94
115,324
117,781
120,327
122,983
125,762
128,677
131,738
134,954
138,332
141,874
145,581
149,446
153,464
157,631
161,943
166,397
170,989
175,71
180,554
185,512
190,573
195,725
200,952
206,237
211,561
216,904
222,246
227,565
232,838
238,042
243,156
248,154
253,013
257,709
262,215
266,508
270,561
274,351
277,853
281,043
283,9
286,402
288,531
290,269
291,6
292,509
292,985
293,015
292,59
291,704
290,351
288,527
286,232
283,467
280,237
276,548
272,409
267,831
262,826
257,409
251,597
245,408
238,862
231,98
224,785
217,302
209,558
201,578
193,393
185,03
176,519
167,89
159,175
150,402
141,601
132,803
124,036
115,327
106,704
98,194
89,822
81,61
73,581
65,757
58,155
50,792
43,686
36,848
30,291
24,026
18,06
12,4
7,052
2,02
-2,697
-7,096
-11,181
-14,955
-18,423
-21,591
-24,469
-27,066
-29,394
-31,465
-33,293
-34,892
-36,279
-37,469
-38,48
-39,328
-40,03
-40,604
-41,068
-41,437
-41,731
-41,964
-42,153
-42,313
-42,46
-42,608
-42,769
-42,958
-43,185
-43,463
-43,803
-44,214
-44,705
-45,285
-45,961
-46,74
-47,625
-48,621
-49,73
-50,953
-52,289
-53,738
-55,295
-56,958
-58,72
-60,577
-62,52
-64,543
-66,636
-68,791
-70,998
-73,246
-75,525
-77,823
-80,13
-82,434
-84,724
-86,99
-89,22
-91,403
-93,53
-95,588
-97,569
-99,46
-101,252
-102,934
-104,499
-105,937
-107,241
-108,405
-109,424
-110,296
-111,019
-111,592
-112,016
-112,293
-112,425
-112,417
-112,274
-112,003
-111,61
-111,106
-110,5
-109,803
-109,03
-108,191
-107,301
-106,374
-105,421
-104,459
-103,5
-102,559
-101,649
-100,785
-99,982
-99,256
-98,623
-98,099
-97,697
-97,431
-97,313
-97,354
-97,56
-97,937
-98,487
-99,214
-100,118
-101,2
-102,462
-103,9
-105,516
-107,309
-109,274
-111,408
-113,7
-116,135
-118,696
-121,369
-124,133
-126,968
-129,853
-132,767
-135,693
-138,623
-141,54
-144,423
-147,246
-149,972
-152,573
-155,032
-157,328
-159,447
-161,38
-163,127
-164,711
-166,172
-167,546
-168,861
-170,125
-171,322
-172,451
-173,513
-174,509
-175,443
-176,294
-177,021
-177,602
-178,029
-178,276
-178,302
-178,014
-177,287
-176,008
-174,1
-171,525
-168,268
-164,32
-159,663
-154,298
-148,288
-141,771
-134,94
-127,981
-121,024
-114,161
-107,552
-101,474
-96,149
-91,727
-88,155
-85,154
-82,686
-80,985
-80,289
-80,83
-82,834
-86,394
-91,97
-100,504
-112,321
-127,089
-144,08
-162,043
-179,861
-196,766
-211,49
-222,251
-228,026
-228,576
-224,451
-217,132
-207,802
-197,167
-186,327
-176,644
-169,003
-163,83
-160,835
-158,949
-157,48
-156,191
-154,765
-152,932
-150,56
-147,553
-144,14
-140,882
-138,086
-135,812
-134,042
-132,615
-131,392
-130,333
-129,353
-128,319
-127,175
-125,89
-124,469
-122,965
-121,393
-119,735
-117,978
-116,093
-114,068
-111,92
-109,674
-107,374
-105,08
-102,832
-100,649
-98,545
-96,514
-94,545
-92,626
-90,732
-88,835
-86,919
-84,97
-82,986
-80,965
-78,896
-76,764
-74,549
-72,228
-69,779
-67,186
-64,431
-61,5
-58,381
-55,066
-51,552
-47,84
-43,929
-39,818
-35,506
-30,991
-26,276
-21,364
-16,261
-10,974
-5,512
0,112
5,881
11,779
17,783
23,873
30,025
36,214
42,415
48,6
54,741
60,81
66,776
72,611
78,283
83,763
89,018
94,02
98,739
103,146
107,213
110,915
114,227
117,126
119,592
121,604
123,146
124,202
124,759
124,806
124,336
123,342
121,822
119,775
117,206
114,121
110,529
106,441
101,873
96,841
91,366
85,47
79,176
72,512
65,506
58,187
50,587
42,738
34,674
26,428
18,035
9,529
0,945
-7,683
-16,322
-24,937
-33,498
-41,971
-50,327
-58,536
-66,57
-74,404
-82,012
-89,373
-96,466
-103,272
-109,776
-115,962
-121,82
-127,339
-132,513
-137,338
-141,81
-145,93
-149,7
-153,124
-156,208
-158,962
-161,393
-163,514
-165,337
-166,875
-168,143
-169,155
-169,929
-170,481
-170,826
-170,984
-170,97
-170,802
-170,498
-170,075
-169,55
-168,938
-168,255
-167,517
-166,739
-165,932
-165,111
-164,288
-163,472
-162,674
-161,902
-161,164
-160,466
-159,812
-159,206
-158,649
-158,143
-157,688
-157,283
-156,926
-156,613
-156,343
-156,11
-155,91
-155,739
-155,59
-155,459
-155,337
-155,219
-155,099
-154,968
-154,82
-154,648
-154,446
-154,206
-153,922
-153,587
-153,195
-152,739
-152,215
-151,615
-150,935
-150,171
-149,317
-148,372
-147,332
-146,197
-144,967
-143,642
-142,224
-140,715
-139,118
-137,436
-135,673
-133,834
-131,923
-129,947
-127,911
-125,823
-123,691
-121,522
-119,327
-117,116
-114,896
-112,679
-110,475
-108,294
-106,146
-104,042
-101,992
-100,007
-98,098
-96,277
-94,555
-92,942
-91,449
-90,084
-88,857
-87,773
-86,835
-86,047
-85,412
-84,93
-84,603
-84,431
-84,415
-84,555
-84,852
-85,304
-85,909
-86,663
-87,555
-88,576
-89,714
-90,953
-92,279
-93,674
-95,121
-96,6
-98,099
-99,604
-101,099
-102,566
-103,976
-105,308
-106,548
-107,683
-108,703
-109,604
-110,382
-111,043
-111,611
-112,109
-112,561
-112,986
-113,381
-113,74
-114,062
-114,343
-114,582
-114,765
-114,849
-114,78
-114,519
-114,023
-113,255
-112,172
-110,683
-108,707
-106,18
-103,048
-99,299
-94,934
-89,95
-84,359
-78,207
-71,577
-64,615
-57,51
-50,414
-43,483
-36,86
-30,678
-25,13
-20,39
-16,6
-13,879
-12,314
-11,974
-12,938
-15,272
-18,961
-23,93
-30,017
-36,984
-44,624
-52,722
-61,079
-69,523
-77,842
-85,846
-93,384
-100,329
-106,562
-111,967
-116,408
-119,741
-121,906
-122,902
-122,807
-121,773
-119,949
-117,498
-114,57
-111,282
-107,758
-104,094
-100,357
-96,591
-92,847
-89,181
-85,676
-82,44
-79,532
-76,979
-74,767
-72,828
-71,088
-69,454
-67,844
-66,194
-64,455
-62,602
-60,628
-58,547
-56,367
-54,096
-51,727
-49,228
-46,582
-43,779
-40,821
-37,73
-34,54
-31,291
-28,022
-24,769
-21,552
-18,383
-15,263
-12,181
-9,125
-6,076
-3,021
0,046
3,13
6,234
9,364
12,531
15,747
19,029
22,395
25,863
29,453
33,179
37,055
41,089
45,29
49,659
54,201
58,917
63,809
68,879
74,127
79,551
85,15
90,918
96,849
102,933
109,157
115,505
121,96
128,502
135,111
141,762
148,434
155,099
161,733
168,308
174,798
181,174
187,408
193,471
199,332
204,963
210,333
215,415
220,181
224,603
228,656
232,317
235,563
238,375
240,735
242,626
244,034
244,947
245,357
245,254
244,637
243,503
241,854
239,696
237,035
233,884
230,256
226,165
221,632
216,676
211,32
205,588
199,507
193,104
186,409
179,454
172,27
164,891
157,35
149,682
141,922
134,104
126,262
118,431
110,643
102,93
95,325
87,857
80,555
73,446
66,556
59,91
53,529
47,433
41,64
36,165
31,022
26,222
21,774
17,683
13,956
10,593
7,596
4,963
2,689
0,77
-0,803
-2,038
-2,948
-3,545
-3,843
-3,859
-3,608
-3,11
-2,383
-1,445
-0,318
0,979
2,426
4
5,682
7,451
9,286
11,168
13,077
14,995
16,903
18,784
20,621
22,4
24,105
25,723
27,242
28,65
29,939
31,099
32,122
33,004
33,739
34,325
34,76
35,044
35,18
35,169
35,016
34,726
34,306
33,764
33,108
32,349
31,496
30,561
29,556
28,492
27,383
26,242
25,081
23,914
22,755
21,618
20,514
19,459
18,464
17,541
16,703
15,959
15,318
14,79
14,381
14,098
13,945
13,928
14,047
14,305
14,701
15,232
15,897
16,689
17,603
18,63
19,76
20,983
22,288
23,662
25,092
26,565
28,065
29,578
31,09
32,585
34,045
35,454
36,795
38,05
39,204
40,243
41,152
41,919
42,533
42,986
43,269
43,377
43,304
43,042
42,586
41,934
41,08
40,025
38,772
37,323
35,685
33,867
31,882
29,744
27,471
25,079
22,586
20,01
17,364
14,667
11,94
9,208
6,499
3,837
1,232
-1,296
-3,727
-6,048
-8,253
-10,347
-12,358
-14,311
-16,217
-18,092
-19,93
-21,731
-23,51
-25,275
-27,02
-28,722
-30,321
-31,775
-33,085
-34,244
-35,242
-36,014
-36,405
-36,307
-35,655
-34,398
-32,567
-30,11
-26,857
-22,834
-18,239
-13,333
-8,522
-3,965
0,569
5,087
9,358
13,361
17,094
20,819
25,24
30,379
35,514
40,061
43,446
45,101
44,815
41,935
35,236
24,442
10,046
-7,155
-25,742
-44,583
-63,123
-80,283
-94,571
-105,122
-111,39
-113,537
-112,741
-109,719
-104,718
-98,358
-91,314
-84,209
-77,827
-72,231
-66,727
-61,032
-55,102
-48,867
-42,472
-35,87
-28,795
-21,402
-14,148
-7,318
-1,127
4,371
9,327
13,777
17,678
21,097
24,156
27,005
29,787
32,548
35,274
37,955
40,604
43,271
46,001
48,801
51,669
54,594
57,564
60,581
63,632
66,678
69,681
72,593
75,387
78,063
80,625
83,084
85,454
87,744
89,968
92,155
94,327
96,504
98,705
100,946
103,246
105,637
108,146
110,803
113,633
116,655
119,89
123,353
127,059
131,016
135,23
139,704
144,439
149,438
154,701
160,226
166,008
172,039
178,31
184,806
191,512
198,406
205,465
212,664
219,974
227,366
234,809
242,271
249,719
257,117
264,433
271,631
278,675
285,53
292,159
298,529
304,604
310,351
315,739
320,737
325,316
329,451
333,116
336,289
338,95
341,082
342,668
343,698
344,163
344,056
343,376
342,124
340,306
337,93
335,009
331,558
327,596
323,145
318,227
312,871
307,103
300,956
294,459
287,648
280,557
273,22
265,674
257,956
250,101
242,146
234,126
226,077
218,033
210,027
202,092
194,26
186,561
179,022
171,671
164,533
157,628
150,978
144,599
138,506
132,71
127,222
122,046
117,188
112,647
108,423
104,512
100,908
97,604
94,59
91,854
89,383
87,164
85,18
83,417
81,857
80,485
79,282
78,232
77,318
76,521
75,826
75,215
74,671
74,178
73,72
73,281
72,847
72,404
71,941
71,445
70,906
70,316
69,667
68,952
68,166
67,305
66,368
65,351
64,257
63,085
61,839
60,522
59,139
57,694
56,194
54,643
53,047
51,414
49,75
48,059
46,35
44,627
42,898
41,17
39,449
37,741
36,052
34,39
32,759
31,166
29,615
28,113
26,663
25,272
23,944
22,683
21,493
20,377
19,338
18,377
17,496
16,693
15,967
15,317
14,739
14,232
13,791
13,414
13,097
12,835
12,625
12,462
12,341
12,257
12,203
12,172
12,159
12,157
12,16
12,162
12,155
12,134
12,093
12,023
11,919
11,77
11,568
11,304
10,969
10,555
10,054
9,459
8,765
7,97
7,071
6,069
4,962
3,75
2,431
1,007
-0,524
-2,164
-3,914
-5,777
-7,75
-9,826
-11,996
-14,253
-16,587
-18,985
-21,433
-23,92
-26,433
-28,967
-31,521
-34,087
-36,653
-39,198
-41,693
-44,116
-46,453
-48,688
-50,81
-52,814
-54,709
-56,523
-58,304
-60,092
-61,913
-63,767
-65,636
-67,513
-69,39
-71,258
-73,118
-74,945
-76,715
-78,425
-80,069
-81,624
-83,043
-84,229
-85,039
-85,347
-85,068
-84,157
-82,614
-80,439
-77,648
-74,264
-70,348
-66,036
-61,469
-56,773
-52,068
-47,43
-42,998
-39,039
-35,774
-33,325
-31,702
-30,684
-30,057
-29,935
-30,415
-31,564
-33,745
-37,248
-42,503
-50,499
-61,919
-76,641
-94,281
-113,955
-134,063
-153,333
-170,422
-183,312
-190,656
-192,103
-187,748
-178,648
-166,671
-153,163
-139,415
-127,164
-117,467
-110,766
-107,223
-106,146
-106,4
-107,367
-108,582
-109,513
-109,996
-109,964
-109,375
-108,573
-107,997
-107,803
-108,024
-108,6
-109,359
-110,229
-111,191
-112,165
-113,064
-113,843
-114,477
-114,977
-115,38
-115,689
-115,891
-115,968
-115,915
-115,75
-115,515
-115,27
-115,052
-114,879
-114,758
-114,68
-114,629
-114,588
-114,53
-114,42
-114,23
-113,941
-113,539
-113,021
-112,379
-111,6
-110,664
-109,549
-108,231
-106,694
-104,922
-102,901
-100,621
-98,074
-95,256
-92,173
-88,825
-85,215
-81,345
-77,215
-72,83
-68,197
-63,325
-58,222
-52,902
-47,383
-41,682
-35,823
-29,83
-23,729
-17,548
-11,314
-5,058
1,191
7,402
13,543
19,583
25,49
31,232
36,778
42,095
47,152
51,919
56,367
60,468
64,195
67,524
70,431
72,897
74,903
76,431
77,468
78
78,02
77,52
76,498
74,951
72,883
70,3
67,21
63,627
59,564
55,039
50,072
44,687
38,906
32,759
26,272
19,477
12,405
5,089
-2,437
-10,138
-17,979
-25,924
-33,937
-41,984
-50,028
-58,036
-65,972
-73,805
-81,502
-89,033
-96,368
-103,481
-110,345
-116,938
-123,238
-129,226
-134,884
-140,199
-145,158
-149,751
-153,972
-157,816
-161,281
-164,367
-167,076
-169,414
-171,386
-173,003
-174,273
-175,21
-175,828
-176,14
-176,163
-175,916
-175,415
-174,679
-173,729
-172,583
-171,263
-169,787
-168,177
-166,45
-164,628
-162,728
-160,769
-158,769
-156,744
-154,711
-152,683
-150,676
-148,702
-146,772
-144,895
-143,082
-141,338
-139,671
-138,084
-136,58
-135,161
-133,828
-132,58
-131,414
-130,327
-129,314
-128,37
-127,488
-126,661
-125,88
-125,137
-124,423
-123,728
-123,042
-122,356
-121,659
-120,941
-120,191
-119,4
-118,556
-117,65
-116,673
-115,614
-114,465
-113,219
-111,867
-110,403
-108,821
-107,114
-105,279
-103,311
-101,208
-98,969
-96,593
-94,082
-91,437
-88,665
-85,769
-82,757
-79,637
-76,416
-73,103
-69,71
-66,246
-62,723
-59,152
-55,547
-51,921
-48,287
-44,663
-41,062
-37,499
-33,991
-30,551
-27,195
-23,938
-20,794
-17,777
-14,899
-12,176
-9,621
-7,249
-5,07
-3,095
-1,334
0,206
1,519
2,602
3,456
4,082
4,484
4,665
4,629
4,379
3,922
3,265
2,413
1,375
0,161
-1,22
-2,75
-4,411
-6,184
-8,049
-9,986
-11,974
-13,992
-16,019
-18,037
-20,023
-21,958
-23,82
-25,576
-27,204
-28,685
-29,995
-31,119
-32,052
-32,79
-33,351
-33,767
-34,06
-34,257
-34,377
-34,422
-34,409
-34,347
-34,232
-34,058
-33,795
-33,408
-32,9
-32,281
-31,551
-30,671
-29,532
-28,009
-26,021
-23,513
-20,469
-16,835
-12,434
-7,258
-1,515
4,538
10,527
16,281
22,029
27,839
33,438
38,765
43,975
49,375
55,721
63,17
70,821
77,859
83,778
88,032
90,13
89,265
83,875
73,243
58,233
40,088
20,21
-0,195
-20,329
-38,986
-54,156
-64,355
-69,499
-70,307
-68,085
-63,806
-57,868
-50,885
-43,981
-38,296
-34,27
-31,581
-29,375
-27,076
-24,61
-21,996
-19,156
-15,806
-11,815
-7,453
-3,252
0,349
3,178
5,264
6,718
7,554
7,76
7,407
6,646
5,675
4,623
3,528
2,384
1,176
-0,066
-1,272
-2,388
-3,39
-4,268
-5,024
-5,659
-6,159
-6,527
-6,79
-6,978
-7,133
-7,276
-7,401
-7,499
-7,55
-7,54
-7,459
-7,291
-7,01
-6,593
-6,019
-5,272
-4,34
-3,206
-1,845
-0,235
1,649
3,823
6,301
9,091
12,203
15,64
19,401
23,482
27,874
32,567
37,552
42,819
48,354
54,142
60,165
66,402
72,833
79,433
86,173
93,022
99,949
106,919
113,898
120,848
127,734
134,517
141,16
147,626
153,878
159,878
165,59
170,977
176,005
180,641
184,853
188,612
191,89
194,662
196,906
198,604
199,74
200,299
200,27
199,647
198,425
196,602
194,181
191,165
187,563
183,388
178,654
173,38
167,588
161,303
154,551
147,364
139,772
131,811
123,516
114,925
106,078
97,014
87,774
78,401
68,936
59,422
49,9
40,412
30,998
21,698
12,549
3,589
-5,149
-13,632
-21,827
-29,707
-37,244
-44,415
-51,198
-57,574
-63,527
-69,043
-74,112
-78,727
-82,882
-86,576
-89,811
-92,588
-94,913
-96,796
-98,247
-99,278
-99,904
-100,142
-100,01
-99,528
-98,717
-97,601
-96,202
-94,544
-92,651
-90,55
-88,263
-85,817
-83,236
-80,544
-77,764
-74,92
-72,034
-69,128
-66,221
-63,333
-60,48
-57,68
-54,946
-52,292
-49,729
-47,268
-44,917
-42,683
-40,572
-38,588
-36,733
-35,008
-33,413
-31,947
-30,605
-29,384
-28,277
-27,278
-26,379
-25,571
-24,847
-24,195
-23,606
-23,07
-22,575
-22,11
-21,664
-21,227
-20,786
-20,332
-19,854
-19,341
-18,786
-18,179
-17,513
-16,78
-15,973
-15,088
-14,119
-13,061
-11,911
-10,666
-9,324
-7,885
-6,349
-4,718
-2,994
-1,182
0,713
2,686
4,728
6,834
8,993
11,199
13,44
15,707
17,989
20,274
22,551
24,809
27,033
29,212
31,333
33,382
35,349
37,22
38,984
40,63
42,148
43,526
44,755
45,825
46,727
47,45
47,989
48,335
48,483
48,43
48,174
47,714
47,055
46,197
45,145
43,905
42,481
40,879
39,105
37,164
35,064
32,813
30,422
27,903
25,273
22,548
19,745
16,883
13,984
11,067
8,151
5,251
2,382
-0,438
-3,189
-5,843
-8,381
-10,789
-13,055
-15,171
-17,136
-18,951
-20,631
-22,204
-23,701
-25,149
-26,569
-27,972
-29,367
-30,758
-32,153
-33,562
-34,972
-36,35
-37,66
-38,859
-39,907
-40,76
-41,342
-41,552
-41,298
-40,5
-39,095
-37,048
-34,318
-30,894
-26,782
-22,011
-16,674
-10,906
-4,858
1,297
7,396
13,27
18,699
23,43
27,242
29,934
31,337
31,313
29,702
26,388
21,31
14,459
5,924
-4,139
-15,546
-28,074
-41,486
-55,538
-69,924
-84,302
-98,389
-111,924
-124,674
-136,435
-146,956
-156,022
-163,492
-169,275
-173,375
-175,858
-176,811
-176,364
-174,691
-171,972
-168,442
-164,363
-159,93
-155,315
-150,67
-146,125
-141,859
-138,029
-134,74
-132,058
-130,002
-128,56
-127,712
-127,415
-127,577
-128,095
-128,84
-129,668
-130,483
-131,213
-131,796
-132,181
-132,303
-132,096
-131,526
-130,58
-129,246
-127,52
-125,397
-122,874
-119,978
-116,745
-113,216
-109,438
-105,436
-101,222
-96,807
-92,193
-87,382
-82,375
-77,162
-71,729
-66,065
-60,167
-54,033
-47,663
-41,052
-34,192
-27,075
-19,696
-12,054
-4,151
4,009
12,417
21,064
29,932
39,005
48,262
57,681
67,244
76,929
86,716
96,583
106,506
116,461
126,422
136,364
146,259
156,078
165,791
175,368
184,78
193,998
202,992
211,734
220,195
228,348
236,168
243,628
250,703
257,371
263,609
269,398
274,719
279,556
283,895
287,725
291,037
293,822
296,077
297,798
298,985
299,639
299,763
299,364
298,449
297,029
295,113
292,717
289,857
286,549
282,813
278,67
274,141
269,251
264,023
258,483
252,657
246,572
240,255
233,733
227,035
220,188
213,219
206,156
199,025
191,851
184,66
177,474
170,317
163,209
156,17
149,22
142,374
135,649
129,059
122,617
116,332
110,215
104,274
98,515
92,943
87,562
82,373
77,379
72,578
67,971
63,553
59,322
55,274
51,402
47,702
44,166
40,786
37,555
34,464
31,505
28,669
25,947
23,33
20,809
18,377
16,025
13,746
11,532
9,375
7,271
5,213
3,197
1,217
-0,73
-2,646
-4,535
-6,399
-8,238
-10,053
-11,846
-13,615
-15,362
-17,084
-18,78
-20,45
-22,089
-23,697
-25,27
-26,804
-28,296
-29,742
-31,137
-32,478
-33,759
-34,977
-36,126
-37,201
-38,198
-39,112
-39,938
-40,672
-41,309
-41,844
-42,275
-42,598
-42,809
-42,906
-42,887
-42,75
-42,492
-42,113
-41,612
-40,987
-40,239
-39,367
-38,372
-37,254
-36,017
-34,66
-33,189
-31,604
-29,912
-28,116
-26,223
-24,237
-22,165
-20,016
-17,797
-15,517
-13,185
-10,811
-8,407
-5,983
-3,55
-1,121
1,293
3,68
6,028
8,325
10,56
12,721
14,796
16,775
18,646
20,4
22,026
23,515
24,858
26,047
27,076
27,939
28,63
29,146
29,485
29,645
29,627
29,431
29,06
28,518
27,811
26,946
25,931
24,775
23,491
22,089
20,583
18,985
17,312
15,577
13,796
11,984
10,157
8,331
6,522
4,744
3,014
1,344
-0,25
-1,755
-3,161
-4,454
-5,627
-6,669
-7,575
-8,337
-8,953
-9,419
-9,735
-9,901
-9,921
-9,797
-9,538
-9,15
-8,644
-8,029
-7,321
-6,531
-5,675
-4,77
-3,832
-2,88
-1,93
-1,001
-0,111
0,72
1,477
2,14
2,694
3,123
3,412
3,547
3,516
3,308
2,913
2,325
1,536
0,541
-0,661
-2,071
-3,69
-5,513
-7,537
-9,754
-12,157
-14,735
-17,477
-20,37
-23,398
-26,547
-29,8
-33,138
-36,544
-39,999
-43,483
-46,978
-50,465
-53,924
-57,339
-60,693
-63,968
-67,152
-70,229
-73,189
-76,021
-78,716
-81,267
-83,669
-85,919
-88,014
-89,955
-91,744
-93,384
-94,88
-96,241
-97,474
-98,589
-99,598
-100,514
-101,35
-102,121
-102,842
-103,529
-104,199
-104,868
-105,554
-106,274
-107,042
-107,876
-108,789
-109,796
-110,908
-112,137
-113,49
-114,976
-116,598
-118,361
-120,265
-122,309
-124,49
-126,801
-129,236
-131,784
-134,432
-137,167
-139,973
-142,831
-145,722
-148,625
-151,518
-154,377
-157,177
-159,894
-162,501
-164,971
-167,278
-169,393
-171,29
-172,942
-174,322
-175,405
-176,166
-176,583
-176,633
-176,298
-175,559
-174,402
-172,813
-170,782
-168,301
-165,366
-161,973
-158,125
-153,824
-149,079
-143,898
-138,295
-132,285
-125,887
-119,119
-112,007
-104,574
-96,848
-88,858
-80,634
-72,21
-63,619
-54,897
-46,081
-37,207
-28,314
-19,441
-10,627
-1,91
6,672
15,08
23,278
31,23
38,902
46,26
53,273
59,913
66,152
71,968
77,337
82,242
86,667
90,599
94,027
96,944
99,346
101,23
102,598
103,451
103,797
103,642
102,997
101,876
100,292
98,264
95,81
92,951
89,71
86,11
82,178
77,94
73,424
68,659
63,673
58,496
53,158
47,69
42,121
36,479
30,792
25,088
19,393
13,73
8,123
2,593
-2,84
-8,157
-13,342
-18,378
-23,252
-27,951
-32,465
-36,783
-40,898
-44,804
-48,495
-51,968
-55,221
-58,252
-61,064
-63,656
-66,033
-68,199
-70,158
-71,919
-73,487
-74,873
-76,084
-77,132
-78,025
-78,775
-79,391
-79,884
-80,264
-80,539
-80,72
-80,815
-80,832
-80,779
-80,665
-80,496
-80,28
-80,022
-79,731
-79,411
-79,068
-78,707
-78,333
-77,95
-77,563
-77,176
-76,791
-76,412
-76,042
-75,682
-75,334
-74,998
-74,674
-74,363
-74,063
-73,772
-73,49
-73,214
-72,943
-72,675
-72,409
-72,143
-71,876
-71,607
-71,334
-71,054
-70,768
-70,472
-70,165
-69,845
-69,51
-69,158
-68,786
-68,392
-67,975
-67,531
-67,057
-66,551
-66,01
-65,431
-64,811
-64,148
-63,441
-62,687
-61,887
-61,041
-60,149
-59,213
-58,232
-57,209
-56,146
-55,045
-53,908
-52,738
-51,536
-50,305
-49,051
-47,776
-46,487
-45,186
-43,881
-42,578
-41,281
-40
-38,74
-37,508
-36,312
-35,16
-34,06
-33,021
-32,051
-31,158
-30,351
-29,638
-29,024
-28,518
-28,124
-27,844
-27,683
-27,643
-27,725
-27,93
-28,255
-28,699
-29,263
-29,944
-30,743
-31,654
-32,674
-33,798
-35,021
-36,338
-37,737
-39,205
-40,729
-42,296
-43,893
-45,508
-47,13
-48,742
-50,331
-51,886
-53,396
-54,853
-56,238
-57,531
-58,705
-59,748
-60,661
-61,451
-62,123
-62,678
-63,12
-63,46
-63,717
-63,9
-64,002
-63,996
-63,851
-63,555
-63,112
-62,546
-61,879
-61,115
-60,237
-59,225
-58,073
-56,776
-55,322
-53,675
-51,785
-49,636
-47,267
-44,76
-42,199
-39,636
-37,095
-34,582
-32,109
-29,712
-27,436
-25,318
-23,376
-21,634
-20,134
-18,959
-18,201
-17,901
-18,025
-18,482
-19,184
-20,081
-21,142
-22,347
-23,657
-25,021
-26,398
-27,765
-29,111
-30,411
-31,612
-32,627
-33,362
-33,767
-33,851
-33,662
-33,244
-32,614
-31,78
-30,752
-29,554
-28,213
-26,735
-25,106
-23,31
-21,347
-19,236
-17,018
-14,737
-12,411
-10,04
-7,609
-5,109
-2,542
0,088
2,781
5,542
8,369
11,247
14,148
17,042
19,909
22,736
25,515
28,237
30,889
33,455
35,922
38,279
40,516
42,625
44,596
46,421
48,094
49,62
51,003
52,252
53,376
54,383
55,285
56,095
56,828
57,497
58,118
58,706
59,278
59,853
60,451
61,093
61,799
62,59
63,489
64,518
65,697
67,047
68,589
70,34
72,319
74,54
77,018
79,764
82,789
86,098
89,699
93,592
97,777
102,251
107,008
112,037
117,327
122,863
128,628
134,601
140,761
147,082
153,54
160,107
166,752
173,445
180,152
186,839
193,47
200,009
206,417
212,657
218,69
224,476
229,979
235,161
239,985
244,415
248,419
251,964
255,021
257,561
259,561
260,999
261,855
262,113
261,762
260,793
259,199
256,98
254,137
250,674
246,6
241,926
236,666
230,838
224,461
217,559
210,157
202,285
193,973
185,254
176,164
166,74
157,023
147,052
136,87
126,519
116,042
105,484
94,887
84,294
73,749
63,292
52,965
42,806
32,851
23,137
13,697
4,56
-4,246
-12,694
-20,763
-28,432
-35,684
-42,505
-48,881
-54,805
-60,268
-65,268
-69,801
-73,87
-77,477
-80,63
-83,335
-85,605
-87,451
-88,888
-89,934
-90,606
-90,923
-90,906
-90,578
-89,959
-89,075
-87,947
-86,6
-85,058
-83,344
-81,482
-79,493
-77,398
-75,219
-72,974
-70,681
-68,356
-66,015
-63,671
-61,338
-59,027
-56,746
-54,506
-52,312
-50,171
-48,086
-46,06
-44,094
-42,188
-40,34
-38,548
-36,808
-35,115
-33,464
-31,848
-30,259
-28,689
-27,129
-25,569
-23,999
-22,408
-20,785
-19,118
-17,398
-15,613
-13,754
-11,81
-9,774
-7,637
-5,392
-3,032
-0,551
2,056
4,793
7,663
10,668
13,811
17,091
20,508
24,06
27,745
31,56
35,5
39,562
43,739
48,027
52,418
56,905
61,479
66,132
70,851
75,627
80,446
85,294
90,158
95,023
99,874
104,696
109,474
114,193
118,837
123,393
127,846
132,181
136,385
140,445
144,346
148,077
151,626
154,98
158,13
161,065
163,774
166,25
168,482
170,464
172,187
173,643
174,826
175,731
176,351
176,686
176,731
176,487
175,956
175,142
174,052
172,693
171,075
169,206
167,098
164,761
162,209
159,451
156,499
153,364
150,057
146,594
142,99
139,261
135,426
131,506
127,52
123,492
119,445
115,402
111,38
107,398
103,477
99,639
95,912
92,323
88,889
85,631
82,56
79,681
76,994
74,486
72,128
69,891
67,745
65,657
63,609
61,591
59,601
57,643
55,714
53,819
51,982
50,228
48,593
47,124
45,875
44,918
44,357
44,298
44,841
46,092
48,125
50,98
54,657
59,115
64,305
70,153
76,57
83,457
90,667
98,016
105,299
112,267
118,659
124,253
128,783
131,925
133,477
133,357
131,69
128,853
125,023
120,121
114,093
106,893
98,44
88,702
77,273
63,319
46,673
27,855
7,723
-12,435
-31,472
-48,617
-62,648
-71,894
-75,527
-73,51
-66,533
-56,145
-43,584
-29,57
-15,192
-1,808
9,706
18,86
25,832
31,532
36,492
40,851
44,854
48,745
52,692
56,833
60,998
64,725
67,785
70,138
71,813
72,948
73,649
73,99
74,097
74,126
74,189
74,349
74,626
74,994
75,437
75,943
76,506
77,124
77,778
78,45
79,114
79,736
80,285
80,725
81,033
81,203
81,237
81,142
80,936
80,639
80,279
79,888
79,491
79,106
78,754
78,455
78,232
78,114
78,126
78,296
78,645
79,193
79,958
80,954
82,194
83,684
85,431
87,436
89,704
92,236
95,034
98,097
101,423
105,005
108,835
112,903
117,197
121,699
126,392
131,255
136,266
141,401
146,637
151,946
157,301
162,675
168,037
173,358
178,608
183,755
188,767
193,614
198,264
202,687
206,854
210,735
214,302
217,528
220,389
222,858
224,915
226,538
227,708
228,408
228,625
228,346
227,562
226,267
224,456
222,13
219,289
215,938
212,085
207,739
202,913
197,623
191,885
185,721
179,151
172,2
164,895
157,262
149,333
141,136
132,704
124,071
115,269
106,333
97,299
88,201
79,075
69,956
60,878
51,877
42,986
34,236
25,66
17,287
9,145
1,261
-6,341
-13,639
-20,611
-27,239
-33,509
-39,407
-44,921
-50,044
-54,771
-59,098
-63,024
-66,553
-69,687
-72,435
-74,804
-76,805
-78,451
-79,756
-80,738
-81,413
-81,8
-81,922
-81,798
-81,453
-80,91
-80,192
-79,325
-78,333
-77,241
-76,073
-74,854
-73,608
-72,359
-71,127
-69,936
-68,804
-67,753
-66,798
-65,957
-65,243
-64,669
-64,247
-63,984
-63,889
-63,968
-64,223
-64,658
-65,273
-66,067
-67,038
-68,182
-69,494
-70,967
-72,593
-74,364
-76,269
-78,298
-80,439
-82,679
-85,005
-87,405
-89,863
-92,365
-94,896
-97,442
-99,988
-102,519
-105,019
-107,476
-109,874
-112,201
-114,445
-116,591
-118,631
-120,551
-122,344
-123,999
-125,508
-126,864
-128,06
-129,09
-129,948
-130,63
-131,131
-131,449
-131,581
-131,523
-131,274
-130,834
-130,2
-129,374
-128,355
-127,145
-125,745
-124,158
-122,387
-120,434
-118,305
-116,002
-113,53
-110,896
-108,106
-105,166
-102,084
-98,869
-95,529
-92,075
-88,517
-84,866
-81,131
-77,325
-73,459
-69,546
-65,598
-61,629
-57,652
-53,682
-49,736
-45,83
-41,98
-38,205
-34,521
-30,944
-27,492
-24,183
-21,032
-18,056
-15,272
-12,697
-10,348
-8,243
-6,395
-4,821
-3,531
-2,536
-1,847
-1,468
-1,404
-1,657
-2,227
-3,116
-4,327
-5,86
-7,713
-9,884
-12,37
-15,166
-18,266
-21,662
-25,339
-29,282
-33,473
-37,895
-42,527
-47,348
-52,335
-57,463
-62,71
-68,049
-73,451
-78,885
-84,318
-89,714
-95,045
-100,279
-105,385
-110,345
-115,147
-119,798
-124,318
-128,723
-133,031
-137,253
-141,394
-145,458
-149,453
-153,371
-157,186
-160,878
-164,41
-167,79
-171,066
-174,231
-177,238
-179,988
-182,324
-184,144
-185,412
-186,043
-185,884
-184,874
-183,025
-180,59
-178,108
-175,902
-174,018
-172,39
-170,857
-169,275
-167,505
-164,919
-160,324
-153
-142,918
-130,679
-117,562
-104,704
-93,15
-84,666
-81,625
-85,86
-98,231
-118,317
-144,307
-174,389
-206,663
-238,4
-266,573
-288,427
-301,967
-306,656
-303,428
-293,492
-278,455
-260,584
-241,999
-224,768
-210,607
-200,202
-193,401
-189,753
-188,377
-188,099
-188,107
-187,694
-186,315
-183,912
-180,634
-176,721
-172,608
-168,767
-165,412
-162,627
-160,391
-158,533
-156,905
-155,406
-153,914
-152,331
-150,623
-148,789
-146,854
-144,862
-142,818
-140,704
-138,504
-136,2
-133,789
-131,292
-128,735
-126,158
-123,61
-121,126
-118,722
-116,401
-114,15
-111,949
-109,778
-107,61
-105,419
-103,187
-100,902
-98,555
-96,142
-93,649
-91,059
-88,35
-85,497
-82,479
-79,276
-75,87
-72,249
-68,399
-64,314
-59,989
-55,425
-50,623
-45,581
-40,299
-34,778
-29,022
-23,037
-16,832
-10,416
-3,803
2,99
9,945
17,038
24,244
31,538
38,892
46,277
53,662
61,016
68,308
75,503
82,57
89,475
96,184
102,662
108,875
114,789
120,37
125,587
130,407
134,801
138,74
142,199
145,153
147,579
149,459
150,775
151,512
151,658
151,206
150,148
148,484
146,214
143,342
139,878
135,833
131,221
126,06
120,37
114,175
107,499
100,37
92,817
84,872
76,568
67,94
59,024
49,856
40,476
30,921
21,231
11,445
1,603
-8,256
-18,093
-27,872
-37,555
-47,107
-56,493
-65,682
-74,643
-83,348
-91,771
-99,889
-107,68
-115,127
-122,213
-128,926
-135,255
-141,194
-146,735
-151,877
-156,619
-160,963
-164,912
-168,471
-171,648
-174,452
-176,894
-178,986
-180,741
-182,173
-183,299
-184,135
-184,699
-185,009
-185,083
-184,939
-184,598
-184,078
-183,396
-182,573
-181,624
-180,567
-179,418
-178,192
-176,904
-175,566
-174,19
-172,786
-171,365
-169,934
-168,5
-167,069
-165,647
-164,238
-162,845
-161,47
-160,117
-158,785
-157,476
-156,189
-154,924
-153,68
-152,456
-151,249
-150,057
-148,878
-147,71
-146,549
-145,393
-144,239
-143,084
-141,927
-140,765
-139,595
-138,415
-137,226
-136,025
-134,812
-133,587
-132,351
-131,104
-129,848
-128,584
-127,314
-126,039
-124,761
-123,482
-122,203
-120,926
-119,651
-118,379
-117,112
-115,85
-114,594
-113,344
-112,101
-110,863
-109,63
-108,401
-107,175
-105,95
-104,723
-103,492
-102,255
-101,008
-99,748
-98,472
-97,175
-95,853
-94,502
-93,116
-91,69
-90,217
-88,692
-87,109
-85,464
-83,751
-81,967
-80,107
-78,17
-76,154
-74,057
-71,879
-69,62
-67,278
-64,857
-62,358
-59,783
-57,136
-54,421
-51,645
-48,813
-45,935
-43,018
-40,072
-37,105
-34,127
-31,148
-28,179
-25,231
-22,315
-19,444
-16,631
-13,89
-11,235
-8,682
-6,243
-3,932
-1,762
0,259
2,121
3,819
5,348
6,703
7,879
8,872
9,678
10,293
10,713
10,932
10,95
10,769
10,395
9,835
9,098
8,19
7,122
5,904
4,551
3,073
1,479
-0,227
-2,03
-3,91
-5,838
-7,777
-9,705
-11,609
-13,472
-15,278
-17,012
-18,661
-20,233
-21,753
-23,245
-24,723
-26,185
-27,611
-29,001
-30,362
-31,701
-33,036
-34,347
-35,584
-36,723
-37,74
-38,642
-39,482
-40,244
-40,831
-41,136
-41,005
-40,352
-39,254
-37,636
-35,26
-32,048
-28,016
-23,451
-19,084
-15,406
-12,339
-10,012
-8,873
-8,767
-9,273
-9,841
-8,636
-5,58
-3,505
-2,114
0,381
7,213
25,66
53,298
78,97
91,479
77,257
36,302
-17,954
-73,634
-117,854
-146,642
-165,788
-177,444
-183,47
-184,432
-177,667
-164,031
-146,35
-126,495
-107,069
-90,337
-77,204
-68,218
-63,312
-61,232
-60,486
-60,254
-59,983
-59,229
-57,886
-55,862
-53,166
-50,251
-47,691
-45,748
-44,46
-43,737
-43,354
-43,156
-43,089
-43,044
-42,893
-42,567
-42,025
-41,25
-40,281
-39,145
-37,829
-36,327
-34,627
-32,725
-30,657
-28,476
-26,233
-23,98
-21,745
-19,53
-17,337
-15,159
-12,982
-10,792
-8,565
-6,271
-3,892
-1,422
1,146
3,813
6,594
9,509
12,58
15,828
19,268
22,914
26,779
30,874
35,205
39,774
44,581
49,62
54,89
60,389
66,115
72,065
78,234
84,613
91,195
97,969
104,922
112,039
119,301
126,687
134,175
141,743
149,365
157,017
164,672
172,301
179,877
187,372
194,754
201,995
209,063
215,928
222,557
228,922
234,991
240,735
246,127
251,139
255,746
259,925
263,654
266,912
269,683
271,949
273,696
274,914
275,593
275,726
275,309
274,341
272,824
270,762
268,162
265,033
261,389
257,243
252,614
247,521
241,987
236,035
229,693
222,988
215,952
208,616
201,014
193,182
185,154
176,968
168,66
160,268
151,829
143,379
134,955
126,592
118,325
110,185
102,206
94,417
86,846
79,522
72,469
65,709
59,266
53,156
47,398
42,005
36,99
32,362
28,13
24,298
20,869
17,844
15,22
12,993
11,157
9,703
8,619
7,892
7,508
7,451
7,701
8,241
9,049
10,106
11,389
12,878
14,55
16,384
18,358
20,451
22,642
24,912
27,24
29,608
31,997
34,391
36,774
39,13
41,446
43,708
45,906
48,028
50,065
52,008
53,852
55,59
57,218
58,733
60,134
61,422
62,597
63,661
64,619
65,474
66,233
66,899
67,481
67,985
68,417
68,785
69,096
69,357
69,576
69,759
69,913
70,043
70,156
70,258
70,352
70,445
70,541
70,643
70,757
70,887
71,036
71,207
71,403
71,628
71,884
72,173
72,495
72,854
73,249
73,682
74,153
74,662
75,211
75,797
76,422
77,085
77,786
78,524
79,299
80,112
80,962
81,851
82,781
83,753
84,769
85,83
86,938
88,096
89,304
90,563
91,872
93,233
94,645
96,109
97,622
99,186
100,798
102,456
104,159
105,903
107,685
109,501
111,343
113,207
115,087
116,977
118,872
120,763
122,646
124,513
126,357
128,171
129,946
131,672
133,337
134,932
136,446
137,87
139,193
140,406
141,502
142,476
143,323
144,04
144,622
145,063
145,362
145,513
145,514
145,361
145,05
144,579
143,95
143,17
142,248
141,192
140,012
138,72
137,329
135,852
134,3
132,679
130,992
129,245
127,454
125,635
123,814
122,011
120,236
118,505
116,831
115,212
113,641
112,09
110,513
108,882
107,184
105,417
103,598
101,741
99,862
97,988
96,141
94,344
92,619
90,971
89,397
87,935
86,636
85,588
84,92
84,726
85,067
85,999
87,536
89,655
92,307
95,384
98,748
102,284
105,883
109,459
112,938
116,196
119,095
121,475
123,126
123,869
123,548
121,989
119,08
114,794
109,167
102,334
94,489
85,81
76,463
66,621
56,453
46,149
35,899
25,873
16,276
7,309
-0,82
-7,868
-13,649
-18,071
-21,115
-22,85
-23,404
-22,906
-21,491
-19,336
-16,621
-13,514
-10,152
-6,633
-3,056
0,46
3,769
6,704
9,131
10,977
12,206
12,826
12,875
12,402
11,482
10,231
8,775
7,208
5,59
3,947
2,293
0,659
-0,909
-2,363
-3,672
-4,82
-5,797
-6,596
-7,215
-7,664
-7,973
-8,192
-8,377
-8,562
-8,762
-8,978
-9,203
-9,434
-9,667
-9,889
-10,082
-10,229
-10,319
-10,344
-10,3
-10,176
-9,953
-9,61
-9,125
-8,479
-7,658
-6,648
-5,437
-4,014
-2,373
-0,511
1,572
3,876
6,405
9,16
12,143
15,352
18,786
22,44
26,31
30,388
34,663
39,121
43,747
48,524
53,431
58,45
63,559
68,734
73,953
79,191
84,423
89,624
94,768
99,826
104,772
109,579
114,219
118,665
122,89
126,869
130,577
133,989
137,084
139,84
142,237
144,255
145,877
147,088
147,874
148,225
148,13
147,583
146,582
145,125
143,214
140,854
138,052
134,818
131,163
127,104
122,656
117,837
112,669
107,173
101,373
95,294
88,963
82,407
75,654
68,734
61,675
54,508
47,262
39,968
32,654
25,349
18,084
10,886
3,782
-3,202
-10,04
-16,709
-23,186
-29,451
-35,486
-41,273
-46,797
-52,046
-57,01
-61,679
-66,046
-70,109
-73,863
-77,308
-80,446
-83,279
-85,811
-88,048
-89,997
-91,666
-93,064
-94,202
-95,09
-95,74
-96,164
-96,374
-96,384
-96,206
-95,853
-95,34
-94,679
-93,884
-92,967
-91,942
-90,821
-89,615
-88,337
-86,997
-85,605
-84,171
-82,703
-81,208
-79,695
-78,168
-76,633
-75,094
-73,554
-72,018
-70,486
-68,96
-67,443
-65,936
-64,438
-62,951
-61,475
-60,011
-58,559
-57,12
-55,695
-54,284
-52,888
-51,508
-50,145
-48,802
-47,478
-46,176
-44,897
-43,642
-42,413
-41,212
-40,04
-38,9
-37,793
-36,722
-35,69
-34,698
-33,749
-32,847
-31,994
-31,192
-30,445
-29,755
-29,125
-28,555
-28,049
-27,607
-27,229
-26,916
-26,667
-26,481
-26,357
-26,29
-26,279
-26,319
-26,406
-26,535
-26,701
-26,898
-27,121
-27,363
-27,619
-27,882
-28,147
-28,406
-28,654
-28,885
-29,092
-29,271
-29,415
-29,518
-29,577
-29,585
-29,539
-29,434
-29,266
-29,034
-28,735
-28,367
-27,93
-27,425
-26,853
-26,217
-25,521
-24,769
-23,967
-23,122
-22,241
-21,332
-20,405
-19,47
-18,537
-17,616
-16,719
-15,856
-15,039
-14,279
-13,587
-12,972
-12,445
-12,016
-11,694
-11,488
-11,406
-11,455
-11,643
-11,975
-12,456
-13,092
-13,884
-14,836
-15,946
-17,215
-18,641
-20,219
-21,945
-23,813
-25,815
-27,941
-30,181
-32,524
-34,957
-37,466
-40,035
-42,651
-45,295
-47,954
-50,609
-53,246
-55,847
-58,398
-60,884
-63,29
-65,602
-67,807
-69,893
-71,849
-73,664
-75,328
-76,834
-78,174
-79,342
-80,336
-81,15
-81,786
-82,241
-82,52
-82,623
-82,557
-82,327
-81,941
-81,408
-80,739
-79,945
-79,04
-78,036
-76,95
-75,796
-74,589
-73,345
-72,079
-70,806
-69,54
-68,295
-67,084
-65,918
-64,809
-63,768
-62,803
-61,923
-61,133
-60,441
-59,85
-59,362
-58,979
-58,702
-58,528
-58,455
-58,48
-58,597
-58,799
-59,079
-59,429
-59,839
-60,297
-60,791
-61,309
-61,837
-62,362
-62,869
-63,344
-63,775
-64,147
-64,449
-64,668
-64,794
-64,817
-64,728
-64,519
-64,184
-63,717
-63,115
-62,374
-61,493
-60,473
-59,314
-58,018
-56,591
-55,036
-53,359
-51,568
-49,669
-47,67
-45,582
-43,414
-41,177
-38,88
-36,537
-34,158
-31,755
-29,34
-26,923
-24,514
-22,123
-19,759
-17,43
-15,14
-12,897
-10,703
-8,561
-6,473
-4,436
-2,451
-0,513
1,382
3,242
5,074
6,888
8,693
10,502
12,327
14,182
16,081
18,04
20,073
22,198
24,43
26,786
29,282
31,935
34,76
37,773
40,986
44,414
48,067
51,956
56,089
60,472
65,11
70,007
75,161
80,572
86,235
92,144
98,29
104,662
111,246
118,027
124,985
132,102
139,353
146,715
154,161
161,662
169,188
176,707
184,187
191,593
198,89
206,042
213,013
219,766
226,265
232,475
238,36
243,886
249,02
253,731
257,989
261,764
265,033
267,771
269,956
271,571
272,6
273,028
272,847
272,049
270,63
268,589
265,928
262,653
258,772
254,295
249,239
243,621
237,461
230,782
223,613
215,98
207,915
199,451
190,623
181,467
172,021
162,323
152,414
142,332
132,117
121,81
111,451
101,078
90,73
80,444
70,257
60,203
50,315
40,625
31,162
21,955
13,029
4,407
-3,888
-11,838
-19,427
-26,638
-33,462
-39,889
-45,912
-51,529
-56,737
-61,538
-65,935
-69,935
-73,546
-76,776
-79,637
-82,142
-84,305
-86,142
-87,669
-88,905
-89,869
-90,578
-91,054
-91,316
-91,385
-91,28
-91,021
-90,628
-90,121
-89,518
-88,839
-88,103
-87,327
-86,529
-85,726
-84,936
-84,173
-83,453
-82,789
-82,192
-81,673
-81,243
-80,909
-80,68
-80,562
-80,56
-80,68
-80,926
-81,304
-81,814
-82,458
-83,237
-84,149
-85,193
-86,367
-87,667
-89,088
-90,627
-92,28
-94,043
-95,911
-97,878
-99,937
-102,08
-104,299
-106,582
-108,92
-111,298
-113,703
-116,123
-118,546
-120,964
-123,365
-125,742
-128,084
-130,385
-132,636
-134,829
-136,954
-139
-140,959
-142,821
-144,576
-146,215
-147,729
-149,112
-150,361
-151,472
-152,439
-153,254
-153,907
-154,392
-154,706
-154,844
-154,803
-154,578
-154,168
-153,59
-152,879
-152,081
-151,243
-150,401
-149,574
-148,785
-148,066
-147,444
-146,938
-146,549
-146,26
-146,059
-145,996
-146,177
-146,672
-147,479
-148,522
-149,622
-150,651
-151,643
-152,514
-153,019
-153,033
-152,508
-151,635
-151,073
-151,339
-152,357
-154,232
-157,322
-161,302
-165,7
-170,006
-172,457
-173,006
-174,504
-176,492
-176,978
-172,947
-156,622
-129,911
